{
  "AcquisitionMatrixPE": 104,
  "AcquisitionNumber": 1,
  "AcquisitionTime": "09:19:48.652500",
  "BandwidthPerPixelPhaseEncode": 17.17,
  "BaseResolution": 104,
  "BodyPartExamined": "BRAIN",
  "CoilString": "HC1-7;NC1_2",
  "ConsistencyInfo": "N4_VE11C_LATEST_20160120",
  "ConversionSoftware": "dcm2niix",
  "ConversionSoftwareVersion": "v1.0.20190902",
  "DerivedVendorReportedEchoSpacing": 0.000560011,
  "DeviceSerialNumber": "167006",
  "DwellTime": 2.1e-06,
  "EchoTime": 0.037,
  "EchoTrainLength": 104,
  "EffectiveEchoSpacing": 0.000560011,
  "FlipAngle": 52,
  "ImageComments": "Unaliased_MB4_PE3_LB",
  "ImageOrientationPatientDICOM": [0.999368, 0.00365853, -0.0353661, -0.0120358, 0.970777, -0.23968],
  "ImageType": [
    "ORIGINAL",
    "PRIMARY",
    "M",
    "MB",
    "ND",
    "MOSAIC"
],
  "ImagingFrequency": 123.259,
  "InPlanePhaseEncodingDirectionDICOM": "COL",
  "InstitutionAddress": "Chemin_Queen-Mary_4565_Montreal_District_CA_H3W_1W5",
  "InstitutionName": "IUGM",
  "InstitutionalDepartmentName": "Department",
  "MRAcquisitionType": "2D",
  "MagneticFieldStrength": 3,
  "Manufacturer": "Siemens",
  "ManufacturersModelName": "Prisma_fit",
  "Modality": "MR",
  "MultibandAccelerationFactor": 4,
  "PartialFourier": 1,
  "PatientPosition": "HFS",
  "PercentPhaseFOV": 100,
  "PhaseEncodingDirection": "j",
  "PhaseEncodingSteps": 104,
  "PhaseResolution": 1,
  "PixelBandwidth": 2290,
  "ProcedureStepDescription": "games_shinobi",
  "ProtocolName": "func_task-shinobi_run-1",
  "PulseSequenceDetails": "%CustomerSeq%_cmrr_mbep2d_bold",
  "ReceiveCoilActiveElements": "HC1-7;NC1,2",
  "ReceiveCoilName": "HeadNeck_64",
  "ReconMatrixPE": 104,
  "RepetitionTime": 1.49,
  "SAR": 0.0269512,
  "ScanOptions": "FS",
  "ScanningSequence": "EP",
  "SequenceName": "epfid2d1_104",
  "SequenceVariant": "SK_SS",
  "SeriesDescription": "func_task-shinobi_run-1",
  "SeriesNumber": 11,
  "ShimSetting": [614, -7246, -8839, 633, 3, -259, 14, 30],
  "SliceThickness": 2,
  "SliceTiming": [0, 0.7825, 0.0975, 0.88, 0.195, 0.98, 0.2925, 1.0775, 0.39, 1.175, 0.49, 1.2725, 0.5875, 1.37, 0.685, 0, 0.7825, 0.0975, 0.88, 0.195, 0.98, 0.2925, 1.0775, 0.39, 1.175, 0.49, 1.2725, 0.5875, 1.37, 0.685, 0, 0.7825, 0.0975, 0.88, 0.195, 0.98, 0.2925, 1.0775, 0.39, 1.175, 0.49, 1.2725, 0.5875, 1.37, 0.685, 0, 0.7825, 0.0975, 0.88, 0.195, 0.98, 0.2925, 1.0775, 0.39, 1.175, 0.49, 1.2725, 0.5875, 1.37, 0.685],
  "SoftwareVersions": "syngo_MR_E11",
  "SpacingBetweenSlices": 2,
  "StationName": "MRC35049",
  "TaskName": "shinobi",
  "TotalReadoutTime": 0.0576811,
  "TxRefAmp": 212.381,
  "WipMemBlock": "da43fe48-c2f2-47f5-9b3b-a4d57d84feed||Sequence: R016 ve11c/master r/e634e98; Dec 19 2017 11:00:25 by eja",
  "dcmmeta_affine": [
    [-1.9987354278564453, -0.02407155930995941, -0.06691154837608337, 106.90833282470703],
    [-0.00731706852093339, 1.9415547847747803, -0.47990769147872925, -72.29728698730469],
    [-0.07073228806257248, 0.4793594777584076, 1.9404152631759644, -54.80718231201172],
    [0.0, 0.0, 0.0, 1.0]
],
  "dcmmeta_reorient_transform": [
    [0.0, -1.0, 0.0, 103.0],
    [1.0, 0.0, 0.0, 0.0],
    [0.0, 0.0, 1.0, 0.0],
    [0.0, 0.0, 0.0, 1.0]
],
  "dcmmeta_shape": [104, 104, 60, 481],
  "dcmmeta_slice_dim": 2,
  "dcmmeta_version": 0.6,
  "global": {
    "const": {
      "AcquisitionMatrix": [104, 0, 0, 104],
      "AngioFlag": "N",
      "BitsAllocated": 16,
      "BitsStored": 16,
      "BodyPartExamined": "BRAIN",
      "Columns": 832,
      "EchoNumbers": 1,
      "EchoTime": 37.0,
      "EchoTrainLength": 104,
      "FlipAngle": 52.0,
      "HighBit": 15,
      "ImageOrientationPatient": [0.99936772565274, 0.0036585342428, -0.0353661427196, -0.0120357798895, 0.97077740298275, -0.2396797318517],
      "ImagePositionPatient": [-823.20661988168, -837.07222389581, 194.80023810847],
      "ImageType": [
        "ORIGINAL",
        "PRIMARY",
        "M",
        "MB",
        "ND",
        "MOSAIC"
],
      "ImagedNucleus": "1H",
      "ImagingFrequency": 123.259009,
      "InPlanePhaseEncodingDirection": "COL",
      "MRAcquisitionType": "2D",
      "MagneticFieldStrength": 3.0,
      "Manufacturer": "SIEMENS",
      "ManufacturerModelName": "Prisma_fit",
      "Modality": "MR",
      "NumberOfAverages": 1.0,
      "NumberOfPhaseEncodingSteps": 104,
      "PercentPhaseFieldOfView": 100.0,
      "PercentSampling": 100.0,
      "PerformedProcedureStepStartTime": "090835.541000",
      "PhotometricInterpretation": "MONOCHROME2",
      "PixelBandwidth": 2290.0,
      "PixelRepresentation": 0,
      "PixelSpacing": [2.0, 2.0],
      "ProtocolName": "func_task-shinobi_run-1",
      "RepetitionTime": 1490.0,
      "Rows": 832,
      "SAR": 0.02695123929583,
      "SamplesPerPixel": 1,
      "ScanOptions": "FS",
      "ScanningSequence": "EP",
      "SequenceName": "epfid2d1_104",
      "SequenceVariant": [
        "SK",
        "SS"
],
      "SeriesDescription": "func_task-shinobi_run-1",
      "SeriesNumber": 11,
      "SeriesTime": "092122.550000",
      "SliceLocation": -39.403037842678,
      "SliceThickness": 2.0,
      "SmallestImagePixelValue": 0,
      "SoftwareVersions": "syngo MR E11",
      "SpacingBetweenSlices": 1.9999999922324,
      "SpecificCharacterSet": "ISO_IR 100",
      "StudyID": "1",
      "StudyTime": "090835.400000",
      "TransmitCoilName": "Body",
      "VariableFlipAngleFlag": "N",
      "WindowCenterWidthExplanation": "Algo1",
      "dBdt": 0.0},
    "slices": {}
  },
  "time": {
    "samples": {
      "AcquisitionNumber": [1, 2, 3, 4, 5, 6, 7, 8, 9, 10, 11, 12, 13, 14, 15, 16, 17, 18, 19, 20, 21, 22, 23, 24, 25, 26, 27, 28, 29, 30, 31, 32, 33, 34, 35, 36, 37, 38, 39, 40, 41, 42, 43, 44, 45, 46, 47, 48, 49, 50, 51, 52, 53, 54, 55, 56, 57, 58, 59, 60, 61, 62, 63, 64, 65, 66, 67, 68, 69, 70, 71, 72, 73, 74, 75, 76, 77, 78, 79, 80, 81, 82, 83, 84, 85, 86, 87, 88, 89, 90, 91, 92, 93, 94, 95, 96, 97, 98, 99, 100, 101, 102, 103, 104, 105, 106, 107, 108, 109, 110, 111, 112, 113, 114, 115, 116, 117, 118, 119, 120, 121, 122, 123, 124, 125, 126, 127, 128, 129, 130, 131, 132, 133, 134, 135, 136, 137, 138, 139, 140, 141, 142, 143, 144, 145, 146, 147, 148, 149, 150, 151, 152, 153, 154, 155, 156, 157, 158, 159, 160, 161, 162, 163, 164, 165, 166, 167, 168, 169, 170, 171, 172, 173, 174, 175, 176, 177, 178, 179, 180, 181, 182, 183, 184, 185, 186, 187, 188, 189, 190, 191, 192, 193, 194, 195, 196, 197, 198, 199, 200, 201, 202, 203, 204, 205, 206, 207, 208, 209, 210, 211, 212, 213, 214, 215, 216, 217, 218, 219, 220, 221, 222, 223, 224, 225, 226, 227, 228, 229, 230, 231, 232, 233, 234, 235, 236, 237, 238, 239, 240, 241, 242, 243, 244, 245, 246, 247, 248, 249, 250, 251, 252, 253, 254, 255, 256, 257, 258, 259, 260, 261, 262, 263, 264, 265, 266, 267, 268, 269, 270, 271, 272, 273, 274, 275, 276, 277, 278, 279, 280, 281, 282, 283, 284, 285, 286, 287, 288, 289, 290, 291, 292, 293, 294, 295, 296, 297, 298, 299, 300, 301, 302, 303, 304, 305, 306, 307, 308, 309, 310, 311, 312, 313, 314, 315, 316, 317, 318, 319, 320, 321, 322, 323, 324, 325, 326, 327, 328, 329, 330, 331, 332, 333, 334, 335, 336, 337, 338, 339, 340, 341, 342, 343, 344, 345, 346, 347, 348, 349, 350, 351, 352, 353, 354, 355, 356, 357, 358, 359, 360, 361, 362, 363, 364, 365, 366, 367, 368, 369, 370, 371, 372, 373, 374, 375, 376, 377, 378, 379, 380, 381, 382, 383, 384, 385, 386, 387, 388, 389, 390, 391, 392, 393, 394, 395, 396, 397, 398, 399, 400, 401, 402, 403, 404, 405, 406, 407, 408, 409, 410, 411, 412, 413, 414, 415, 416, 417, 418, 419, 420, 421, 422, 423, 424, 425, 426, 427, 428, 429, 430, 431, 432, 433, 434, 435, 436, 437, 438, 439, 440, 441, 442, 443, 444, 445, 446, 447, 448, 449, 450, 451, 452, 453, 454, 455, 456, 457, 458, 459, 460, 461, 462, 463, 464, 465, 466, 467, 468, 469, 470, 471, 472, 473, 474, 475, 476, 477, 478, 479, 480, 481],
      "AcquisitionTime": ["091948.652500", "091950.142500", "091951.632500", "091953.122500", "091954.612500", "091956.102500", "091957.592500", "091959.082500", "092000.572500", "092002.062500", "092003.552500", "092005.042500", "092006.532500", "092008.022500", "092009.512500", "092011.002500", "092012.492500", "092013.982500", "092015.472500", "092016.962500", "092018.452500", "092019.942500", "092021.432500", "092022.922500", "092024.412500", "092025.902500", "092027.392500", "092028.882500", "092030.372500", "092031.862500", "092033.352500", "092034.842500", "092036.332500", "092037.822500", "092039.312500", "092040.802500", "092042.292500", "092043.782500", "092045.272500", "092046.762500", "092048.252500", "092049.742500", "092051.232500", "092052.722500", "092054.212500", "092055.702500", "092057.192500", "092058.682500", "092100.172500", "092101.662500", "092103.152500", "092104.642500", "092106.132500", "092107.622500", "092109.112500", "092110.602500", "092112.092500", "092113.582500", "092115.072500", "092116.562500", "092118.052500", "092119.542500", "092121.032500", "092122.522500", "092124.012500", "092125.502500", "092126.992500", "092128.482500", "092129.972500", "092131.462500", "092132.952500", "092134.442500", "092135.932500", "092137.422500", "092138.912500", "092140.402500", "092141.892500", "092143.382500", "092144.872500", "092146.362500", "092147.852500", "092149.342500", "092150.832500", "092152.322500", "092153.812500", "092155.302500", "092156.792500", "092158.282500", "092159.772500", "092201.262500", "092202.752500", "092204.242500", "092205.732500", "092207.222500", "092208.712500", "092210.202500", "092211.692500", "092213.182500", "092214.672500", "092216.162500", "092217.652500", "092219.142500", "092220.632500", "092222.122500", "092223.612500", "092225.102500", "092226.592500", "092228.082500", "092229.572500", "092231.062500", "092232.552500", "092234.042500", "092235.532500", "092237.022500", "092238.512500", "092240.002500", "092241.492500", "092242.982500", "092244.472500", "092245.962500", "092247.452500", "092248.942500", "092250.432500", "092251.922500", "092253.412500", "092254.902500", "092256.392500", "092257.882500", "092259.372500", "092300.862500", "092302.352500", "092303.842500", "092305.332500", "092306.822500", "092308.312500", "092309.802500", "092311.292500", "092312.782500", "092314.272500", "092315.762500", "092317.252500", "092318.742500", "092320.232500", "092321.722500", "092323.212500", "092324.702500", "092326.192500", "092327.682500", "092329.172500", "092330.662500", "092332.152500", "092333.642500", "092335.132500", "092336.622500", "092338.112500", "092339.602500", "092341.092500", "092342.582500", "092344.072500", "092345.562500", "092347.052500", "092348.542500", "092350.032500", "092351.522500", "092353.012500", "092354.502500", "092355.992500", "092357.482500", "092358.972500", "092400.462500", "092401.952500", "092403.442500", "092404.932500", "092406.422500", "092407.912500", "092409.402500", "092410.892500", "092412.382500", "092413.872500", "092415.362500", "092416.852500", "092418.342500", "092419.832500", "092421.322500", "092422.812500", "092424.302500", "092425.792500", "092427.282500", "092428.772500", "092430.262500", "092431.752500", "092433.242500", "092434.732500", "092436.222500", "092437.712500", "092439.202500", "092440.692500", "092442.182500", "092443.672500", "092445.162500", "092446.652500", "092448.142500", "092449.632500", "092451.122500", "092452.612500", "092454.102500", "092455.592500", "092457.082500", "092458.572500", "092500.062500", "092501.552500", "092503.042500", "092504.532500", "092506.022500", "092507.512500", "092509.002500", "092510.492500", "092511.982500", "092513.472500", "092514.962500", "092516.452500", "092517.942500", "092519.432500", "092520.922500", "092522.412500", "092523.902500", "092525.392500", "092526.882500", "092528.372500", "092529.862500", "092531.352500", "092532.842500", "092534.332500", "092535.822500", "092537.312500", "092538.802500", "092540.292500", "092541.782500", "092543.272500", "092544.762500", "092546.252500", "092547.742500", "092549.232500", "092550.722500", "092552.212500", "092553.702500", "092555.192500", "092556.682500", "092558.172500", "092559.662500", "092601.152500", "092602.642500", "092604.132500", "092605.622500", "092607.112500", "092608.602500", "092610.092500", "092611.582500", "092613.072500", "092614.562500", "092616.052500", "092617.542500", "092619.032500", "092620.522500", "092622.012500", "092623.502500", "092624.992500", "092626.482500", "092627.972500", "092629.462500", "092630.952500", "092632.442500", "092633.932500", "092635.422500", "092636.912500", "092638.402500", "092639.892500", "092641.382500", "092642.872500", "092644.362500", "092645.852500", "092647.342500", "092648.832500", "092650.322500", "092651.812500", "092653.302500", "092654.792500", "092656.282500", "092657.772500", "092659.262500", "092700.752500", "092702.242500", "092703.732500", "092705.222500", "092706.712500", "092708.202500", "092709.692500", "092711.182500", "092712.672500", "092714.162500", "092715.652500", "092717.142500", "092718.632500", "092720.122500", "092721.612500", "092723.102500", "092724.592500", "092726.082500", "092727.572500", "092729.062500", "092730.552500", "092732.042500", "092733.532500", "092735.022500", "092736.512500", "092738.002500", "092739.492500", "092740.982500", "092742.472500", "092743.962500", "092745.452500", "092746.942500", "092748.432500", "092749.922500", "092751.412500", "092752.902500", "092754.392500", "092755.882500", "092757.372500", "092758.862500", "092800.352500", "092801.842500", "092803.332500", "092804.822500", "092806.312500", "092807.802500", "092809.292500", "092810.782500", "092812.272500", "092813.762500", "092815.252500", "092816.742500", "092818.232500", "092819.722500", "092821.212500", "092822.702500", "092824.192500", "092825.682500", "092827.172500", "092828.662500", "092830.152500", "092831.642500", "092833.132500", "092834.622500", "092836.112500", "092837.602500", "092839.092500", "092840.582500", "092842.072500", "092843.562500", "092845.052500", "092846.542500", "092848.032500", "092849.522500", "092851.012500", "092852.502500", "092853.992500", "092855.482500", "092856.972500", "092858.462500", "092859.952500", "092901.442500", "092902.932500", "092904.422500", "092905.912500", "092907.402500", "092908.892500", "092910.382500", "092911.872500", "092913.362500", "092914.852500", "092916.342500", "092917.832500", "092919.322500", "092920.812500", "092922.302500", "092923.792500", "092925.282500", "092926.772500", "092928.262500", "092929.752500", "092931.242500", "092932.732500", "092934.222500", "092935.712500", "092937.202500", "092938.692500", "092940.182500", "092941.672500", "092943.162500", "092944.652500", "092946.142500", "092947.632500", "092949.122500", "092950.612500", "092952.102500", "092953.592500", "092955.082500", "092956.572500", "092958.062500", "092959.552500", "093001.042500", "093002.532500", "093004.022500", "093005.512500", "093007.002500", "093008.492500", "093009.982500", "093011.472500", "093012.962500", "093014.452500", "093015.942500", "093017.432500", "093018.922500", "093020.412500", "093021.902500", "093023.392500", "093024.882500", "093026.372500", "093027.862500", "093029.352500", "093030.842500", "093032.332500", "093033.822500", "093035.312500", "093036.802500", "093038.292500", "093039.782500", "093041.272500", "093042.762500", "093044.252500", "093045.742500", "093047.232500", "093048.722500", "093050.212500", "093051.702500", "093053.192500", "093054.682500", "093056.172500", "093057.662500", "093059.152500", "093100.642500", "093102.132500", "093103.622500", "093105.112500", "093106.602500", "093108.092500", "093109.582500", "093111.072500", "093112.562500", "093114.052500", "093115.542500", "093117.032500", "093118.522500", "093120.012500", "093121.502500", "093122.992500", "093124.482500", "093125.972500", "093127.462500", "093128.952500", "093130.442500", "093131.932500", "093133.422500", "093134.912500", "093136.402500", "093137.892500", "093139.382500", "093140.872500", "093142.362500", "093143.852500"],
      "ContentTime": ["092122.552000", "092122.556000", "092122.559000", "092122.561000", "092122.564000", "092122.567000", "092122.570000", "092122.573000", "092122.576000", "092122.579000", "092122.582000", "092122.585000", "092122.588000", "092122.591000", "092122.594000", "092122.597000", "092122.600000", "092122.603000", "092122.605000", "092122.608000", "092122.611000", "092122.615000", "092122.618000", "092122.621000", "092122.624000", "092122.627000", "092122.630000", "092122.633000", "092122.636000", "092122.639000", "092122.642000", "092122.645000", "092122.647000", "092122.650000", "092122.653000", "092122.656000", "092122.659000", "092122.662000", "092122.665000", "092142.513000", "092142.525000", "092142.528000", "092142.531000", "092142.534000", "092142.537000", "092142.540000", "092142.543000", "092142.546000", "092142.549000", "092142.551000", "092142.554000", "092142.557000", "092142.560000", "092142.563000", "092142.566000", "092142.569000", "092142.572000", "092142.575000", "092142.577000", "092202.514000", "092202.517000", "092202.520000", "092202.523000", "092202.526000", "092202.529000", "092202.532000", "092202.535000", "092202.537000", "092202.540000", "092202.543000", "092202.546000", "092202.549000", "092202.552000", "092202.555000", "092202.558000", "092202.561000", "092202.564000", "092202.567000", "092202.569000", "092222.513000", "092222.516000", "092222.519000", "092222.522000", "092222.525000", "092222.529000", "092222.531000", "092222.534000", "092222.537000", "092222.540000", "092222.543000", "092222.546000", "092222.549000", "092222.552000", "092222.555000", "092222.558000", "092222.561000", "092222.564000", "092222.566000", "092222.569000", "092302.513000", "092302.516000", "092302.519000", "092302.522000", "092302.525000", "092302.528000", "092302.531000", "092302.534000", "092302.536000", "092302.539000", "092302.542000", "092302.545000", "092302.548000", "092302.551000", "092302.554000", "092302.557000", "092302.560000", "092302.574000", "092302.577000", "092302.580000", "092302.583000", "092302.586000", "092302.589000", "092302.591000", "092302.594000", "092302.597000", "092302.600000", "092302.603000", "092302.606000", "092302.609000", "092342.513000", "092342.516000", "092342.519000", "092342.522000", "092342.525000", "092342.528000", "092342.531000", "092342.534000", "092342.536000", "092342.539000", "092342.542000", "092342.545000", "092342.548000", "092342.551000", "092342.554000", "092342.557000", "092342.560000", "092342.563000", "092342.566000", "092342.569000", "092342.572000", "092342.575000", "092342.578000", "092342.581000", "092342.583000", "092342.586000", "092342.589000", "092422.514000", "092422.517000", "092422.520000", "092422.523000", "092422.526000", "092422.529000", "092422.531000", "092422.534000", "092422.537000", "092422.540000", "092422.543000", "092422.546000", "092422.549000", "092422.552000", "092422.555000", "092422.558000", "092422.561000", "092422.564000", "092422.567000", "092422.569000", "092422.572000", "092422.575000", "092422.578000", "092422.581000", "092422.584000", "092422.587000", "092422.590000", "092502.513000", "092502.516000", "092502.519000", "092502.522000", "092502.525000", "092502.528000", "092502.531000", "092502.534000", "092502.537000", "092502.539000", "092502.542000", "092502.545000", "092502.548000", "092502.551000", "092502.554000", "092502.557000", "092502.560000", "092502.563000", "092502.566000", "092502.569000", "092502.572000", "092502.574000", "092502.577000", "092502.580000", "092502.583000", "092502.586000", "092502.589000", "092542.513000", "092542.516000", "092542.519000", "092542.522000", "092542.525000", "092542.528000", "092542.537000", "092542.540000", "092542.543000", "092542.545000", "092542.548000", "092542.551000", "092542.554000", "092542.557000", "092542.560000", "092542.563000", "092542.566000", "092542.569000", "092542.572000", "092542.575000", "092542.578000", "092542.581000", "092542.584000", "092542.586000", "092542.589000", "092542.592000", "092542.595000", "092622.513000", "092622.516000", "092622.519000", "092622.522000", "092622.525000", "092622.528000", "092622.531000", "092622.535000", "092622.537000", "092622.540000", "092622.543000", "092622.546000", "092622.549000", "092622.552000", "092622.555000", "092622.558000", "092622.561000", "092622.564000", "092622.567000", "092622.570000", "092622.573000", "092622.576000", "092622.578000", "092622.581000", "092622.584000", "092622.587000", "092642.514000", "092642.517000", "092642.520000", "092642.523000", "092642.526000", "092642.529000", "092642.532000", "092642.534000", "092642.537000", "092642.540000", "092642.543000", "092642.546000", "092642.549000", "092642.552000", "092722.513000", "092722.516000", "092722.519000", "092722.522000", "092722.525000", "092722.528000", "092722.531000", "092722.534000", "092722.537000", "092722.540000", "092722.543000", "092722.545000", "092722.548000", "092722.551000", "092722.554000", "092722.557000", "092722.560000", "092722.563000", "092722.566000", "092722.569000", "092722.571000", "092722.575000", "092722.577000", "092722.594000", "092722.597000", "092722.600000", "092722.603000", "092802.513000", "092802.516000", "092802.519000", "092802.522000", "092802.525000", "092802.528000", "092802.531000", "092802.534000", "092802.537000", "092802.540000", "092802.542000", "092802.545000", "092802.548000", "092802.551000", "092802.554000", "092802.557000", "092802.567000", "092802.570000", "092802.573000", "092802.576000", "092802.579000", "092802.582000", "092802.585000", "092802.588000", "092802.591000", "092802.594000", "092802.597000", "092842.513000", "092842.516000", "092842.519000", "092842.522000", "092842.525000", "092842.528000", "092842.531000", "092842.534000", "092842.537000", "092842.540000", "092842.543000", "092842.546000", "092842.549000", "092842.552000", "092842.554000", "092842.557000", "092842.560000", "092842.563000", "092842.566000", "092842.569000", "092842.572000", "092842.575000", "092842.578000", "092842.581000", "092842.584000", "092842.588000", "092922.513000", "092922.516000", "092922.519000", "092922.522000", "092922.525000", "092922.528000", "092922.531000", "092922.534000", "092922.537000", "092922.540000", "092922.543000", "092922.546000", "092922.548000", "092922.551000", "092922.554000", "092922.557000", "092922.560000", "092922.563000", "092922.566000", "092922.569000", "092922.572000", "092922.575000", "092922.578000", "092922.581000", "092922.584000", "092922.587000", "092922.590000", "093002.513000", "093002.516000", "093002.519000", "093002.522000", "093002.525000", "093002.528000", "093002.531000", "093002.534000", "093002.537000", "093002.540000", "093002.543000", "093002.546000", "093002.549000", "093002.552000", "093002.555000", "093002.557000", "093002.561000", "093002.563000", "093002.566000", "093002.569000", "093002.572000", "093002.575000", "093002.578000", "093002.581000", "093002.584000", "093002.587000", "093002.590000", "093042.513000", "093042.516000", "093042.519000", "093042.523000", "093042.525000", "093042.528000", "093042.531000", "093042.534000", "093042.537000", "093042.540000", "093042.543000", "093042.546000", "093042.549000", "093042.552000", "093042.555000", "093042.558000", "093042.561000", "093042.563000", "093042.566000", "093042.574000", "093042.577000", "093042.580000", "093042.583000", "093042.586000", "093042.589000", "093042.592000", "093042.595000", "093122.514000", "093122.517000", "093122.520000", "093122.523000", "093122.526000", "093122.529000", "093122.532000", "093122.535000", "093122.538000", "093122.541000", "093122.544000", "093122.547000", "093122.550000", "093122.553000", "093122.556000", "093122.559000", "093122.562000", "093122.564000", "093122.568000", "093122.570000", "093122.573000", "093122.576000", "093122.579000", "093122.582000", "093122.585000", "093122.588000", "093122.591000", "093146.885000", "093146.889000", "093146.892000", "093146.897000", "093146.900000", "093146.903000", "093146.906000", "093146.909000", "093146.912000", "093146.915000", "093146.918000", "093146.921000", "093146.924000", "093146.927000", "093146.930000", "093146.933000"],
