{
  "AcquisitionMatrixPE": 104,
  "AcquisitionNumber": 1,
  "AcquisitionTime": "09:32:49.167500",
  "BandwidthPerPixelPhaseEncode": 17.17,
  "BaseResolution": 104,
  "BodyPartExamined": "BRAIN",
  "CoilString": "HC1-7;NC1_2",
  "ConsistencyInfo": "N4_VE11C_LATEST_20160120",
  "ConversionSoftware": "dcm2niix",
  "ConversionSoftwareVersion": "v1.0.20190902",
  "DerivedVendorReportedEchoSpacing": 0.000560011,
  "DeviceSerialNumber": "167006",
  "DwellTime": 2.1e-06,
  "EchoTime": 0.037,
  "EchoTrainLength": 104,
  "EffectiveEchoSpacing": 0.000560011,
  "FlipAngle": 52,
  "ImageComments": "Unaliased_MB4_PE3_LB",
  "ImageOrientationPatientDICOM": [0.999368, 0.00365853, -0.0353661, -0.0120358, 0.970777, -0.23968],
  "ImageType": [
    "ORIGINAL",
    "PRIMARY",
    "M",
    "MB",
    "ND",
    "MOSAIC"
],
  "ImagingFrequency": 123.259,
  "InPlanePhaseEncodingDirectionDICOM": "COL",
  "InstitutionAddress": "Chemin_Queen-Mary_4565_Montreal_District_CA_H3W_1W5",
  "InstitutionName": "IUGM",
  "InstitutionalDepartmentName": "Department",
  "MRAcquisitionType": "2D",
  "MagneticFieldStrength": 3,
  "Manufacturer": "Siemens",
  "ManufacturersModelName": "Prisma_fit",
  "Modality": "MR",
  "MultibandAccelerationFactor": 4,
  "PartialFourier": 1,
  "PatientPosition": "HFS",
  "PercentPhaseFOV": 100,
  "PhaseEncodingDirection": "j",
  "PhaseEncodingSteps": 104,
  "PhaseResolution": 1,
  "PixelBandwidth": 2290,
  "ProcedureStepDescription": "games_shinobi",
  "ProtocolName": "func_task-shinobi_run-2",
  "PulseSequenceDetails": "%CustomerSeq%_cmrr_mbep2d_bold",
  "ReceiveCoilActiveElements": "HC1-7;NC1,2",
  "ReceiveCoilName": "HeadNeck_64",
  "ReconMatrixPE": 104,
  "RepetitionTime": 1.49,
  "SAR": 0.0269512,
  "ScanOptions": "FS",
  "ScanningSequence": "EP",
  "SequenceName": "epfid2d1_104",
  "SequenceVariant": "SK_SS",
  "SeriesDescription": "func_task-shinobi_run-2",
  "SeriesNumber": 13,
  "ShimSetting": [614, -7246, -8839, 633, 3, -259, 14, 30],
  "SliceThickness": 2,
  "SliceTiming": [0, 0.7825, 0.0975, 0.8825, 0.195, 0.98, 0.2925, 1.0775, 0.3925, 1.175, 0.49, 1.2725, 0.5875, 1.3725, 0.685, 0, 0.7825, 0.0975, 0.8825, 0.195, 0.98, 0.2925, 1.0775, 0.3925, 1.175, 0.49, 1.2725, 0.5875, 1.3725, 0.685, 0, 0.7825, 0.0975, 0.8825, 0.195, 0.98, 0.2925, 1.0775, 0.3925, 1.175, 0.49, 1.2725, 0.5875, 1.3725, 0.685, 0, 0.7825, 0.0975, 0.8825, 0.195, 0.98, 0.2925, 1.0775, 0.3925, 1.175, 0.49, 1.2725, 0.5875, 1.3725, 0.685],
  "SoftwareVersions": "syngo_MR_E11",
  "SpacingBetweenSlices": 2,
  "StationName": "MRC35049",
  "TaskName": "shinobi",
  "TotalReadoutTime": 0.0576811,
  "TxRefAmp": 212.381,
  "WipMemBlock": "f4273d94-6c73-4a79-973f-1762414db434||Sequence: R016 ve11c/master r/e634e98; Dec 19 2017 11:00:25 by eja",
  "dcmmeta_affine": [
    [-1.9987354278564453, -0.02407155930995941, -0.06691154837608337, 106.90833282470703],
    [-0.00731706852093339, 1.9415547847747803, -0.47990769147872925, -72.29728698730469],
    [-0.07073228806257248, 0.4793594777584076, 1.9404152631759644, -54.80718231201172],
    [0.0, 0.0, 0.0, 1.0]
],
  "dcmmeta_reorient_transform": [
    [0.0, -1.0, 0.0, 103.0],
    [1.0, 0.0, 0.0, 0.0],
    [0.0, 0.0, 1.0, 0.0],
    [0.0, 0.0, 0.0, 1.0]
],
  "dcmmeta_shape": [104, 104, 60, 477],
  "dcmmeta_slice_dim": 2,
  "dcmmeta_version": 0.6,
  "global": {
    "const": {
      "AcquisitionMatrix": [104, 0, 0, 104],
      "AngioFlag": "N",
      "BitsAllocated": 16,
      "BitsStored": 16,
      "BodyPartExamined": "BRAIN",
      "Columns": 832,
      "EchoNumbers": 1,
      "EchoTime": 37.0,
      "EchoTrainLength": 104,
      "FlipAngle": 52.0,
      "HighBit": 15,
      "ImageOrientationPatient": [0.99936772565274, 0.0036585342428, -0.0353661427196, -0.0120357798895, 0.97077740298275, -0.2396797318517],
      "ImagePositionPatient": [-823.20661988168, -837.07222389581, 194.80023810847],
      "ImageType": [
        "ORIGINAL",
        "PRIMARY",
        "M",
        "MB",
        "ND",
        "MOSAIC"
],
      "ImagedNucleus": "1H",
      "ImagingFrequency": 123.259012,
      "InPlanePhaseEncodingDirection": "COL",
      "MRAcquisitionType": "2D",
      "MagneticFieldStrength": 3.0,
      "Manufacturer": "SIEMENS",
      "ManufacturerModelName": "Prisma_fit",
      "Modality": "MR",
      "NumberOfAverages": 1.0,
      "NumberOfPhaseEncodingSteps": 104,
      "PercentPhaseFieldOfView": 100.0,
      "PercentSampling": 100.0,
      "PerformedProcedureStepStartTime": "090835.541000",
      "PhotometricInterpretation": "MONOCHROME2",
      "PixelBandwidth": 2290.0,
      "PixelRepresentation": 0,
      "PixelSpacing": [2.0, 2.0],
      "ProtocolName": "func_task-shinobi_run-2",
      "RepetitionTime": 1490.0,
      "Rows": 832,
      "SAR": 0.02695123929583,
      "SamplesPerPixel": 1,
      "ScanOptions": "FS",
      "ScanningSequence": "EP",
      "SequenceName": "epfid2d1_104",
      "SequenceVariant": [
        "SK",
        "SS"
],
      "SeriesDescription": "func_task-shinobi_run-2",
      "SeriesNumber": 13,
      "SeriesTime": "093422.407000",
      "SliceLocation": -39.403037842678,
      "SliceThickness": 2.0,
      "SmallestImagePixelValue": 0,
      "SoftwareVersions": "syngo MR E11",
      "SpacingBetweenSlices": 1.9999999922324,
      "SpecificCharacterSet": "ISO_IR 100",
      "StudyID": "1",
      "StudyTime": "090835.400000",
      "TransmitCoilName": "Body",
      "VariableFlipAngleFlag": "N",
      "WindowCenterWidthExplanation": "Algo1",
      "dBdt": 0.0},
    "slices": {}
  },
  "time": {
    "samples": {
      "AcquisitionNumber": [1, 2, 3, 4, 5, 6, 7, 8, 9, 10, 11, 12, 13, 14, 15, 16, 17, 18, 19, 20, 21, 22, 23, 24, 25, 26, 27, 28, 29, 30, 31, 32, 33, 34, 35, 36, 37, 38, 39, 40, 41, 42, 43, 44, 45, 46, 47, 48, 49, 50, 51, 52, 53, 54, 55, 56, 57, 58, 59, 60, 61, 62, 63, 64, 65, 66, 67, 68, 69, 70, 71, 72, 73, 74, 75, 76, 77, 78, 79, 80, 81, 82, 83, 84, 85, 86, 87, 88, 89, 90, 91, 92, 93, 94, 95, 96, 97, 98, 99, 100, 101, 102, 103, 104, 105, 106, 107, 108, 109, 110, 111, 112, 113, 114, 115, 116, 117, 118, 119, 120, 121, 122, 123, 124, 125, 126, 127, 128, 129, 130, 131, 132, 133, 134, 135, 136, 137, 138, 139, 140, 141, 142, 143, 144, 145, 146, 147, 148, 149, 150, 151, 152, 153, 154, 155, 156, 157, 158, 159, 160, 161, 162, 163, 164, 165, 166, 167, 168, 169, 170, 171, 172, 173, 174, 175, 176, 177, 178, 179, 180, 181, 182, 183, 184, 185, 186, 187, 188, 189, 190, 191, 192, 193, 194, 195, 196, 197, 198, 199, 200, 201, 202, 203, 204, 205, 206, 207, 208, 209, 210, 211, 212, 213, 214, 215, 216, 217, 218, 219, 220, 221, 222, 223, 224, 225, 226, 227, 228, 229, 230, 231, 232, 233, 234, 235, 236, 237, 238, 239, 240, 241, 242, 243, 244, 245, 246, 247, 248, 249, 250, 251, 252, 253, 254, 255, 256, 257, 258, 259, 260, 261, 262, 263, 264, 265, 266, 267, 268, 269, 270, 271, 272, 273, 274, 275, 276, 277, 278, 279, 280, 281, 282, 283, 284, 285, 286, 287, 288, 289, 290, 291, 292, 293, 294, 295, 296, 297, 298, 299, 300, 301, 302, 303, 304, 305, 306, 307, 308, 309, 310, 311, 312, 313, 314, 315, 316, 317, 318, 319, 320, 321, 322, 323, 324, 325, 326, 327, 328, 329, 330, 331, 332, 333, 334, 335, 336, 337, 338, 339, 340, 341, 342, 343, 344, 345, 346, 347, 348, 349, 350, 351, 352, 353, 354, 355, 356, 357, 358, 359, 360, 361, 362, 363, 364, 365, 366, 367, 368, 369, 370, 371, 372, 373, 374, 375, 376, 377, 378, 379, 380, 381, 382, 383, 384, 385, 386, 387, 388, 389, 390, 391, 392, 393, 394, 395, 396, 397, 398, 399, 400, 401, 402, 403, 404, 405, 406, 407, 408, 409, 410, 411, 412, 413, 414, 415, 416, 417, 418, 419, 420, 421, 422, 423, 424, 425, 426, 427, 428, 429, 430, 431, 432, 433, 434, 435, 436, 437, 438, 439, 440, 441, 442, 443, 444, 445, 446, 447, 448, 449, 450, 451, 452, 453, 454, 455, 456, 457, 458, 459, 460, 461, 462, 463, 464, 465, 466, 467, 468, 469, 470, 471, 472, 473, 474, 475, 476, 477],
      "AcquisitionTime": ["093249.167500", "093250.657500", "093252.147500", "093253.637500", "093255.127500", "093256.617500", "093258.107500", "093259.597500", "093301.087500", "093302.577500", "093304.067500", "093305.557500", "093307.047500", "093308.537500", "093310.027500", "093311.517500", "093313.007500", "093314.497500", "093315.987500", "093317.477500", "093318.967500", "093320.457500", "093321.947500", "093323.437500", "093324.927500", "093326.417500", "093327.907500", "093329.397500", "093330.887500", "093332.377500", "093333.867500", "093335.357500", "093336.847500", "093338.337500", "093339.827500", "093341.317500", "093342.807500", "093344.297500", "093345.787500", "093347.277500", "093348.767500", "093350.257500", "093351.747500", "093353.237500", "093354.727500", "093356.217500", "093357.707500", "093359.197500", "093400.687500", "093402.177500", "093403.667500", "093405.157500", "093406.647500", "093408.137500", "093409.627500", "093411.117500", "093412.607500", "093414.097500", "093415.587500", "093417.077500", "093418.567500", "093420.057500", "093421.547500", "093423.037500", "093424.527500", "093426.017500", "093427.507500", "093428.997500", "093430.487500", "093431.977500", "093433.467500", "093434.957500", "093436.447500", "093437.937500", "093439.427500", "093440.917500", "093442.407500", "093443.897500", "093445.387500", "093446.877500", "093448.367500", "093449.857500", "093451.347500", "093452.837500", "093454.327500", "093455.817500", "093457.307500", "093458.797500", "093500.287500", "093501.777500", "093503.267500", "093504.757500", "093506.247500", "093507.737500", "093509.227500", "093510.717500", "093512.207500", "093513.697500", "093515.187500", "093516.677500", "093518.167500", "093519.657500", "093521.147500", "093522.637500", "093524.127500", "093525.617500", "093527.107500", "093528.597500", "093530.087500", "093531.577500", "093533.067500", "093534.557500", "093536.047500", "093537.537500", "093539.027500", "093540.517500", "093542.007500", "093543.497500", "093544.987500", "093546.477500", "093547.967500", "093549.457500", "093550.947500", "093552.437500", "093553.927500", "093555.417500", "093556.907500", "093558.397500", "093559.887500", "093601.377500", "093602.867500", "093604.357500", "093605.847500", "093607.337500", "093608.827500", "093610.317500", "093611.807500", "093613.297500", "093614.787500", "093616.277500", "093617.767500", "093619.257500", "093620.747500", "093622.237500", "093623.727500", "093625.217500", "093626.707500", "093628.197500", "093629.687500", "093631.177500", "093632.667500", "093634.157500", "093635.647500", "093637.137500", "093638.627500", "093640.117500", "093641.607500", "093643.097500", "093644.587500", "093646.077500", "093647.567500", "093649.057500", "093650.547500", "093652.037500", "093653.527500", "093655.017500", "093656.507500", "093657.997500", "093659.487500", "093700.977500", "093702.467500", "093703.957500", "093705.447500", "093706.937500", "093708.427500", "093709.917500", "093711.407500", "093712.897500", "093714.387500", "093715.877500", "093717.367500", "093718.857500", "093720.347500", "093721.837500", "093723.327500", "093724.817500", "093726.307500", "093727.797500", "093729.287500", "093730.777500", "093732.267500", "093733.757500", "093735.247500", "093736.737500", "093738.227500", "093739.717500", "093741.207500", "093742.697500", "093744.187500", "093745.677500", "093747.167500", "093748.657500", "093750.147500", "093751.637500", "093753.127500", "093754.617500", "093756.107500", "093757.597500", "093759.087500", "093800.577500", "093802.067500", "093803.557500", "093805.047500", "093806.537500", "093808.027500", "093809.517500", "093811.007500", "093812.497500", "093813.987500", "093815.477500", "093816.967500", "093818.457500", "093819.947500", "093821.437500", "093822.927500", "093824.417500", "093825.907500", "093827.397500", "093828.887500", "093830.377500", "093831.867500", "093833.357500", "093834.847500", "093836.337500", "093837.827500", "093839.317500", "093840.807500", "093842.297500", "093843.787500", "093845.277500", "093846.767500", "093848.257500", "093849.747500", "093851.237500", "093852.727500", "093854.217500", "093855.707500", "093857.197500", "093858.687500", "093900.177500", "093901.667500", "093903.157500", "093904.647500", "093906.137500", "093907.627500", "093909.117500", "093910.607500", "093912.097500", "093913.587500", "093915.077500", "093916.567500", "093918.057500", "093919.547500", "093921.037500", "093922.527500", "093924.017500", "093925.507500", "093926.997500", "093928.487500", "093929.977500", "093931.467500", "093932.957500", "093934.447500", "093935.937500", "093937.427500", "093938.917500", "093940.407500", "093941.897500", "093943.387500", "093944.877500", "093946.367500", "093947.857500", "093949.347500", "093950.837500", "093952.327500", "093953.817500", "093955.307500", "093956.797500", "093958.287500", "093959.777500", "094001.267500", "094002.757500", "094004.247500", "094005.737500", "094007.227500", "094008.717500", "094010.207500", "094011.697500", "094013.187500", "094014.677500", "094016.167500", "094017.657500", "094019.147500", "094020.637500", "094022.127500", "094023.617500", "094025.107500", "094026.597500", "094028.087500", "094029.577500", "094031.067500", "094032.557500", "094034.047500", "094035.537500", "094037.027500", "094038.517500", "094040.007500", "094041.497500", "094042.987500", "094044.477500", "094045.967500", "094047.457500", "094048.947500", "094050.437500", "094051.927500", "094053.417500", "094054.907500", "094056.397500", "094057.887500", "094059.377500", "094100.867500", "094102.357500", "094103.847500", "094105.337500", "094106.827500", "094108.317500", "094109.807500", "094111.297500", "094112.787500", "094114.277500", "094115.767500", "094117.257500", "094118.747500", "094120.237500", "094121.727500", "094123.217500", "094124.707500", "094126.197500", "094127.687500", "094129.177500", "094130.667500", "094132.157500", "094133.647500", "094135.137500", "094136.627500", "094138.117500", "094139.607500", "094141.097500", "094142.587500", "094144.077500", "094145.567500", "094147.057500", "094148.547500", "094150.037500", "094151.527500", "094153.017500", "094154.507500", "094155.997500", "094157.487500", "094158.977500", "094200.467500", "094201.957500", "094203.447500", "094204.937500", "094206.427500", "094207.917500", "094209.407500", "094210.897500", "094212.387500", "094213.877500", "094215.367500", "094216.857500", "094218.347500", "094219.837500", "094221.327500", "094222.817500", "094224.307500", "094225.797500", "094227.287500", "094228.777500", "094230.267500", "094231.757500", "094233.247500", "094234.737500", "094236.227500", "094237.717500", "094239.207500", "094240.697500", "094242.187500", "094243.677500", "094245.167500", "094246.657500", "094248.147500", "094249.637500", "094251.127500", "094252.617500", "094254.107500", "094255.597500", "094257.087500", "094258.577500", "094300.067500", "094301.557500", "094303.047500", "094304.537500", "094306.027500", "094307.517500", "094309.007500", "094310.497500", "094311.987500", "094313.477500", "094314.967500", "094316.457500", "094317.947500", "094319.437500", "094320.927500", "094322.417500", "094323.907500", "094325.397500", "094326.887500", "094328.377500", "094329.867500", "094331.357500", "094332.847500", "094334.337500", "094335.827500", "094337.317500", "094338.807500", "094340.297500", "094341.787500", "094343.277500", "094344.767500", "094346.257500", "094347.747500", "094349.237500", "094350.727500", "094352.217500", "094353.707500", "094355.197500", "094356.687500", "094358.177500", "094359.667500", "094401.157500", "094402.647500", "094404.137500", "094405.627500", "094407.117500", "094408.607500", "094410.097500", "094411.587500", "094413.077500", "094414.567500", "094416.057500", "094417.547500", "094419.037500", "094420.527500", "094422.017500", "094423.507500", "094424.997500", "094426.487500", "094427.977500", "094429.467500", "094430.957500", "094432.447500", "094433.937500", "094435.427500", "094436.917500", "094438.407500"],
      "ContentTime": ["093422.409000", "093422.413000", "093422.416000", "093422.419000", "093422.422000", "093422.425000", "093422.434000", "093422.436000", "093422.439000", "093422.442000", "093422.445000", "093422.448000", "093422.451000", "093422.454000", "093422.457000", "093422.460000", "093422.463000", "093422.466000", "093422.469000", "093422.472000", "093422.474000", "093422.477000", "093422.480000", "093422.483000", "093422.486000", "093422.489000", "093422.492000", "093422.495000", "093422.498000", "093422.501000", "093422.504000", "093422.507000", "093422.510000", "093422.512000", "093422.515000", "093422.518000", "093422.521000", "093422.524000", "093422.527000", "093422.530000", "093442.374000", "093442.377000", "093442.380000", "093442.383000", "093442.386000", "093442.393000", "093442.396000", "093442.399000", "093442.402000", "093442.405000", "093442.408000", "093442.411000", "093442.413000", "093442.416000", "093442.419000", "093442.422000", "093442.425000", "093442.428000", "093442.431000", "093442.434000", "093502.374000", "093502.377000", "093502.380000", "093502.383000", "093502.386000", "093502.389000", "093502.392000", "093502.395000", "093502.397000", "093502.400000", "093502.403000", "093502.406000", "093502.409000", "093502.412000", "093502.415000", "093502.418000", "093502.421000", "093502.424000", "093502.427000", "093502.430000", "093522.374000", "093522.377000", "093522.380000", "093522.383000", "093522.386000", "093522.389000", "093522.392000", "093522.394000", "093522.397000", "093522.400000", "093522.403000", "093522.406000", "093522.409000", "093522.412000", "093522.415000", "093522.418000", "093522.421000", "093522.424000", "093522.426000", "093522.429000", "093602.375000", "093602.378000", "093602.381000", "093602.384000", "093602.387000", "093602.390000", "093602.393000", "093602.396000", "093602.399000", "093602.401000", "093602.404000", "093602.407000", "093602.410000", "093602.413000", "093602.416000", "093602.419000", "093602.422000", "093602.425000", "093602.428000", "093602.431000", "093602.434000", "093602.437000", "093602.440000", "093602.443000", "093602.445000", "093602.448000", "093602.451000", "093602.454000", "093602.457000", "093642.374000", "093642.377000", "093642.380000", "093642.383000", "093642.386000", "093642.389000", "093642.392000", "093642.395000", "093642.398000", "093642.400000", "093642.403000", "093642.406000", "093642.409000", "093642.412000", "093642.415000", "093642.418000", "093642.421000", "093642.424000", "093642.427000", "093642.430000", "093642.433000", "093642.436000", "093642.439000", "093642.442000", "093642.445000", "093642.447000", "093642.450000", "093722.374000", "093722.378000", "093722.381000", "093722.385000", "093722.388000", "093722.391000", "093722.395000", "093722.398000", "093722.402000", "093722.405000", "093722.408000", "093722.411000", "093722.414000", "093722.418000", "093722.430000", "093722.433000", "093722.437000", "093722.440000", "093722.443000", "093722.447000", "093722.451000", "093722.454000", "093722.457000", "093722.461000", "093722.464000", "093722.468000", "093722.471000", "093802.374000", "093802.377000", "093802.384000", "093802.387000", "093802.390000", "093802.393000", "093802.396000", "093802.399000", "093802.402000", "093802.405000", "093802.408000", "093802.410000", "093802.414000", "093802.416000", "093802.420000", "093802.423000", "093802.426000", "093802.429000", "093802.432000", "093802.435000", "093802.438000", "093802.441000", "093802.444000", "093802.447000", "093802.449000", "093802.452000", "093802.455000", "093842.374000", "093842.377000", "093842.380000", "093842.383000", "093842.386000", "093842.389000", "093842.392000", "093842.395000", "093842.398000", "093842.401000", "093842.404000", "093842.407000", "093842.410000", "093842.413000", "093842.416000", "093842.419000", "093842.422000", "093842.424000", "093842.427000", "093842.430000", "093842.433000", "093842.436000", "093842.439000", "093842.442000", "093842.445000", "093842.448000", "093922.374000", "093922.377000", "093922.380000", "093922.383000", "093922.386000", "093922.389000", "093922.392000", "093922.395000", "093922.398000", "093922.400000", "093922.403000", "093922.406000", "093922.409000", "093922.412000", "093922.415000", "093922.418000", "093922.421000", "093922.424000", "093922.427000", "093922.430000", "093922.433000", "093922.436000", "093922.438000", "093922.441000", "093922.444000", "093922.447000", "093922.450000", "094002.374000", "094002.377000", "094002.380000", "094002.383000", "094002.386000", "094002.389000", "094002.392000", "094002.395000", "094002.398000", "094002.401000", "094002.404000", "094002.407000", "094002.410000", "094002.413000", "094002.416000", "094002.419000", "094002.421000", "094002.424000", "094002.427000", "094002.430000", "094002.433000", "094002.436000", "094002.439000", "094002.442000", "094002.445000", "094002.448000", "094002.451000", "094042.375000", "094042.378000", "094042.381000", "094042.384000", "094042.387000", "094042.390000", "094042.393000", "094042.396000", "094042.399000", "094042.402000", "094042.405000", "094042.408000", "094042.411000", "094042.414000", "094042.417000", "094042.419000", "094042.422000", "094042.425000", "094042.428000", "094042.431000", "094042.434000", "094042.437000", "094042.440000", "094042.451000", "094042.454000", "094042.457000", "094042.460000", "094122.374000", "094122.377000", "094122.380000", "094122.383000", "094122.386000", "094122.389000", "094122.391000", "094122.394000", "094122.397000", "094122.400000", "094122.403000", "094122.406000", "094122.409000", "094122.412000", "094122.415000", "094122.418000", "094122.421000", "094122.424000", "094122.427000", "094122.430000", "094122.433000", "094122.435000", "094122.438000", "094122.441000", "094122.444000", "094122.447000", "094122.450000", "094202.374000", "094202.377000", "094202.380000", "094202.383000", "094202.386000", "094202.389000", "094202.392000", "094202.395000", "094202.398000", "094202.401000", "094202.404000", "094202.407000", "094202.410000", "094202.413000", "094202.415000", "094202.418000", "094202.421000", "094202.424000", "094202.427000", "094202.430000", "094202.433000", "094202.436000", "094202.439000", "094202.442000", "094202.445000", "094202.448000", "094202.451000", "094242.374000", "094242.377000", "094242.380000", "094242.383000", "094242.386000", "094242.389000", "094242.393000", "094242.396000", "094242.398000", "094242.401000", "094242.404000", "094242.407000", "094242.410000", "094242.413000", "094242.416000", "094242.419000", "094242.422000", "094242.425000", "094242.428000", "094242.431000", "094242.433000", "094242.436000", "094242.439000", "094242.442000", "094242.445000", "094242.448000", "094242.451000", "094322.374000", "094322.377000", "094322.380000", "094322.383000", "094322.386000", "094322.389000", "094322.392000", "094322.398000", "094322.401000", "094322.404000", "094322.407000", "094322.410000", "094322.413000", "094322.416000", "094322.419000", "094322.422000", "094322.425000", "094322.428000", "094322.431000", "094322.434000", "094322.436000", "094322.439000", "094322.442000", "094322.445000", "094322.448000", "094322.451000", "094402.374000", "094402.377000", "094402.380000", "094402.383000", "094402.386000", "094402.389000", "094402.392000", "094402.395000", "094402.398000", "094402.401000", "094402.404000", "094402.407000", "094402.410000", "094402.413000", "094402.415000", "094402.419000", "094402.421000", "094402.424000", "094402.427000", "094402.430000", "094402.433000", "094402.436000", "094402.439000", "094402.442000", "094402.445000", "094402.448000", "094402.451000", "094440.984000", "094440.987000", "094440.990000", "094440.993000", "094440.996000", "094441.000000", "094441.003000", "094441.006000", "094441.009000", "094441.012000", "094441.015000", "094441.018000", "094441.021000", "094441.024000", "094441.027000", "094441.030000", "094441.033000", "094441.036000", "094441.038000", "094441.041000", "094441.044000", "094441.047000", "094441.050000", "094441.059000", "094441.062000", "094441.065000"],
