{
  "AcquisitionMatrixPE": 104,
  "AcquisitionNumber": 1,
  "AcquisitionTime": "09:45:12.087500",
  "BandwidthPerPixelPhaseEncode": 17.17,
  "BaseResolution": 104,
  "BodyPartExamined": "BRAIN",
  "CoilString": "HC1-7;NC1_2",
  "ConsistencyInfo": "N4_VE11C_LATEST_20160120",
  "ConversionSoftware": "dcm2niix",
  "ConversionSoftwareVersion": "v1.0.20190902",
  "DerivedVendorReportedEchoSpacing": 0.000560011,
  "DeviceSerialNumber": "167006",
  "DwellTime": 2.1e-06,
  "EchoTime": 0.037,
  "EchoTrainLength": 104,
  "EffectiveEchoSpacing": 0.000560011,
  "FlipAngle": 52,
  "ImageComments": "Unaliased_MB4_PE3_LB",
  "ImageOrientationPatientDICOM": [0.999368, 0.00365853, -0.0353661, -0.0120358, 0.970777, -0.23968],
  "ImageType": [
    "ORIGINAL",
    "PRIMARY",
    "M",
    "MB",
    "ND",
    "MOSAIC"
],
  "ImagingFrequency": 123.259,
  "InPlanePhaseEncodingDirectionDICOM": "COL",
  "InstitutionAddress": "Chemin_Queen-Mary_4565_Montreal_District_CA_H3W_1W5",
  "InstitutionName": "IUGM",
  "InstitutionalDepartmentName": "Department",
  "MRAcquisitionType": "2D",
  "MagneticFieldStrength": 3,
  "Manufacturer": "Siemens",
  "ManufacturersModelName": "Prisma_fit",
  "Modality": "MR",
  "MultibandAccelerationFactor": 4,
  "PartialFourier": 1,
  "PatientPosition": "HFS",
  "PercentPhaseFOV": 100,
  "PhaseEncodingDirection": "j",
  "PhaseEncodingSteps": 104,
  "PhaseResolution": 1,
  "PixelBandwidth": 2290,
  "ProcedureStepDescription": "games_shinobi",
  "ProtocolName": "func_task-shinobi_run-3",
  "PulseSequenceDetails": "%CustomerSeq%_cmrr_mbep2d_bold",
  "ReceiveCoilActiveElements": "HC1-7;NC1,2",
  "ReceiveCoilName": "HeadNeck_64",
  "ReconMatrixPE": 104,
  "RepetitionTime": 1.49,
  "SAR": 0.0269512,
  "ScanOptions": "FS",
  "ScanningSequence": "EP",
  "SequenceName": "epfid2d1_104",
  "SequenceVariant": "SK_SS",
  "SeriesDescription": "func_task-shinobi_run-3",
  "SeriesNumber": 15,
  "ShimSetting": [614, -7246, -8839, 633, 3, -259, 14, 30],
  "SliceThickness": 2,
  "SliceTiming": [0, 0.7825, 0.0975, 0.8825, 0.195, 0.98, 0.2925, 1.0775, 0.3925, 1.175, 0.49, 1.2725, 0.5875, 1.3725, 0.685, 0, 0.7825, 0.0975, 0.8825, 0.195, 0.98, 0.2925, 1.0775, 0.3925, 1.175, 0.49, 1.2725, 0.5875, 1.3725, 0.685, 0, 0.7825, 0.0975, 0.8825, 0.195, 0.98, 0.2925, 1.0775, 0.3925, 1.175, 0.49, 1.2725, 0.5875, 1.3725, 0.685, 0, 0.7825, 0.0975, 0.8825, 0.195, 0.98, 0.2925, 1.0775, 0.3925, 1.175, 0.49, 1.2725, 0.5875, 1.3725, 0.685],
  "SoftwareVersions": "syngo_MR_E11",
  "SpacingBetweenSlices": 2,
  "StationName": "MRC35049",
  "TaskName": "shinobi",
  "TotalReadoutTime": 0.0576811,
  "TxRefAmp": 212.381,
  "WipMemBlock": "c5fc3211-afbf-4dc4-a8c6-201627ca32d7||Sequence: R016 ve11c/master r/e634e98; Dec 19 2017 11:00:25 by eja",
  "dcmmeta_affine": [
    [-1.9987354278564453, -0.02407155930995941, -0.06691154837608337, 106.90833282470703],
    [-0.00731706852093339, 1.9415547847747803, -0.47990769147872925, -72.29728698730469],
    [-0.07073228806257248, 0.4793594777584076, 1.9404152631759644, -54.80718231201172],
    [0.0, 0.0, 0.0, 1.0]
],
  "dcmmeta_reorient_transform": [
    [0.0, -1.0, 0.0, 103.0],
    [1.0, 0.0, 0.0, 0.0],
    [0.0, 0.0, 1.0, 0.0],
    [0.0, 0.0, 0.0, 1.0]
],
  "dcmmeta_shape": [104, 104, 60, 475],
  "dcmmeta_slice_dim": 2,
  "dcmmeta_version": 0.6,
  "global": {
    "const": {
      "AcquisitionMatrix": [104, 0, 0, 104],
      "AngioFlag": "N",
      "BitsAllocated": 16,
      "BitsStored": 16,
      "BodyPartExamined": "BRAIN",
      "Columns": 832,
      "EchoNumbers": 1,
      "EchoTime": 37.0,
      "EchoTrainLength": 104,
      "FlipAngle": 52.0,
      "HighBit": 15,
      "ImageOrientationPatient": [0.99936772565274, 0.0036585342428, -0.0353661427196, -0.0120357798895, 0.97077740298275, -0.2396797318517],
      "ImagePositionPatient": [-823.20661988168, -837.07222389581, 194.80023810847],
      "ImageType": [
        "ORIGINAL",
        "PRIMARY",
        "M",
        "MB",
        "ND",
        "MOSAIC"
],
      "ImagedNucleus": "1H",
      "ImagingFrequency": 123.259013,
      "InPlanePhaseEncodingDirection": "COL",
      "MRAcquisitionType": "2D",
      "MagneticFieldStrength": 3.0,
      "Manufacturer": "SIEMENS",
      "ManufacturerModelName": "Prisma_fit",
      "Modality": "MR",
      "NumberOfAverages": 1.0,
      "NumberOfPhaseEncodingSteps": 104,
      "PercentPhaseFieldOfView": 100.0,
      "PercentSampling": 100.0,
      "PerformedProcedureStepStartTime": "090835.541000",
      "PhotometricInterpretation": "MONOCHROME2",
      "PixelBandwidth": 2290.0,
      "PixelRepresentation": 0,
      "PixelSpacing": [2.0, 2.0],
      "ProtocolName": "func_task-shinobi_run-3",
      "RepetitionTime": 1490.0,
      "Rows": 832,
      "SAR": 0.02695123929583,
      "SamplesPerPixel": 1,
      "ScanOptions": "FS",
      "ScanningSequence": "EP",
      "SequenceName": "epfid2d1_104",
      "SequenceVariant": [
        "SK",
        "SS"
],
      "SeriesDescription": "func_task-shinobi_run-3",
      "SeriesNumber": 15,
      "SeriesTime": "094638.106000",
      "SliceLocation": -39.403037842678,
      "SliceThickness": 2.0,
      "SmallestImagePixelValue": 0,
      "SoftwareVersions": "syngo MR E11",
      "SpacingBetweenSlices": 1.9999999922324,
      "SpecificCharacterSet": "ISO_IR 100",
      "StudyID": "1",
      "StudyTime": "090835.400000",
      "TransmitCoilName": "Body",
      "VariableFlipAngleFlag": "N",
      "WindowCenterWidthExplanation": "Algo1",
      "dBdt": 0.0},
    "slices": {}
  },
  "time": {
    "samples": {
      "AcquisitionNumber": [1, 2, 3, 4, 5, 6, 7, 8, 9, 10, 11, 12, 13, 14, 15, 16, 17, 18, 19, 20, 21, 22, 23, 24, 25, 26, 27, 28, 29, 30, 31, 32, 33, 34, 35, 36, 37, 38, 39, 40, 41, 42, 43, 44, 45, 46, 47, 48, 49, 50, 51, 52, 53, 54, 55, 56, 57, 58, 59, 60, 61, 62, 63, 64, 65, 66, 67, 68, 69, 70, 71, 72, 73, 74, 75, 76, 77, 78, 79, 80, 81, 82, 83, 84, 85, 86, 87, 88, 89, 90, 91, 92, 93, 94, 95, 96, 97, 98, 99, 100, 101, 102, 103, 104, 105, 106, 107, 108, 109, 110, 111, 112, 113, 114, 115, 116, 117, 118, 119, 120, 121, 122, 123, 124, 125, 126, 127, 128, 129, 130, 131, 132, 133, 134, 135, 136, 137, 138, 139, 140, 141, 142, 143, 144, 145, 146, 147, 148, 149, 150, 151, 152, 153, 154, 155, 156, 157, 158, 159, 160, 161, 162, 163, 164, 165, 166, 167, 168, 169, 170, 171, 172, 173, 174, 175, 176, 177, 178, 179, 180, 181, 182, 183, 184, 185, 186, 187, 188, 189, 190, 191, 192, 193, 194, 195, 196, 197, 198, 199, 200, 201, 202, 203, 204, 205, 206, 207, 208, 209, 210, 211, 212, 213, 214, 215, 216, 217, 218, 219, 220, 221, 222, 223, 224, 225, 226, 227, 228, 229, 230, 231, 232, 233, 234, 235, 236, 237, 238, 239, 240, 241, 242, 243, 244, 245, 246, 247, 248, 249, 250, 251, 252, 253, 254, 255, 256, 257, 258, 259, 260, 261, 262, 263, 264, 265, 266, 267, 268, 269, 270, 271, 272, 273, 274, 275, 276, 277, 278, 279, 280, 281, 282, 283, 284, 285, 286, 287, 288, 289, 290, 291, 292, 293, 294, 295, 296, 297, 298, 299, 300, 301, 302, 303, 304, 305, 306, 307, 308, 309, 310, 311, 312, 313, 314, 315, 316, 317, 318, 319, 320, 321, 322, 323, 324, 325, 326, 327, 328, 329, 330, 331, 332, 333, 334, 335, 336, 337, 338, 339, 340, 341, 342, 343, 344, 345, 346, 347, 348, 349, 350, 351, 352, 353, 354, 355, 356, 357, 358, 359, 360, 361, 362, 363, 364, 365, 366, 367, 368, 369, 370, 371, 372, 373, 374, 375, 376, 377, 378, 379, 380, 381, 382, 383, 384, 385, 386, 387, 388, 389, 390, 391, 392, 393, 394, 395, 396, 397, 398, 399, 400, 401, 402, 403, 404, 405, 406, 407, 408, 409, 410, 411, 412, 413, 414, 415, 416, 417, 418, 419, 420, 421, 422, 423, 424, 425, 426, 427, 428, 429, 430, 431, 432, 433, 434, 435, 436, 437, 438, 439, 440, 441, 442, 443, 444, 445, 446, 447, 448, 449, 450, 451, 452, 453, 454, 455, 456, 457, 458, 459, 460, 461, 462, 463, 464, 465, 466, 467, 468, 469, 470, 471, 472, 473, 474, 475],
      "AcquisitionTime": ["094512.087500", "094513.577500", "094515.067500", "094516.557500", "094518.047500", "094519.537500", "094521.027500", "094522.517500", "094524.007500", "094525.497500", "094526.987500", "094528.477500", "094529.967500", "094531.457500", "094532.947500", "094534.437500", "094535.927500", "094537.417500", "094538.907500", "094540.397500", "094541.887500", "094543.377500", "094544.867500", "094546.357500", "094547.847500", "094549.337500", "094550.827500", "094552.317500", "094553.807500", "094555.297500", "094556.787500", "094558.277500", "094559.767500", "094601.257500", "094602.747500", "094604.237500", "094605.727500", "094607.217500", "094608.707500", "094610.197500", "094611.687500", "094613.177500", "094614.667500", "094616.157500", "094617.647500", "094619.137500", "094620.627500", "094622.117500", "094623.607500", "094625.097500", "094626.587500", "094628.077500", "094629.567500", "094631.057500", "094632.547500", "094634.037500", "094635.527500", "094637.017500", "094638.507500", "094639.997500", "094641.487500", "094642.977500", "094644.467500", "094645.957500", "094647.447500", "094648.937500", "094650.427500", "094651.917500", "094653.407500", "094654.897500", "094656.387500", "094657.877500", "094659.367500", "094700.857500", "094702.347500", "094703.837500", "094705.327500", "094706.817500", "094708.307500", "094709.797500", "094711.287500", "094712.777500", "094714.267500", "094715.757500", "094717.247500", "094718.737500", "094720.227500", "094721.717500", "094723.207500", "094724.697500", "094726.187500", "094727.677500", "094729.167500", "094730.657500", "094732.147500", "094733.637500", "094735.127500", "094736.617500", "094738.107500", "094739.597500", "094741.087500", "094742.577500", "094744.067500", "094745.557500", "094747.047500", "094748.537500", "094750.027500", "094751.517500", "094753.007500", "094754.497500", "094755.987500", "094757.477500", "094758.967500", "094800.457500", "094801.947500", "094803.437500", "094804.927500", "094806.417500", "094807.907500", "094809.397500", "094810.887500", "094812.377500", "094813.867500", "094815.357500", "094816.847500", "094818.337500", "094819.827500", "094821.317500", "094822.807500", "094824.297500", "094825.787500", "094827.277500", "094828.767500", "094830.257500", "094831.747500", "094833.237500", "094834.727500", "094836.217500", "094837.707500", "094839.197500", "094840.687500", "094842.177500", "094843.667500", "094845.157500", "094846.647500", "094848.137500", "094849.627500", "094851.117500", "094852.607500", "094854.097500", "094855.587500", "094857.077500", "094858.567500", "094900.057500", "094901.547500", "094903.037500", "094904.527500", "094906.017500", "094907.507500", "094908.997500", "094910.487500", "094911.977500", "094913.467500", "094914.957500", "094916.447500", "094917.937500", "094919.427500", "094920.917500", "094922.407500", "094923.897500", "094925.387500", "094926.877500", "094928.367500", "094929.857500", "094931.347500", "094932.837500", "094934.327500", "094935.817500", "094937.307500", "094938.797500", "094940.287500", "094941.777500", "094943.267500", "094944.757500", "094946.247500", "094947.737500", "094949.227500", "094950.717500", "094952.207500", "094953.697500", "094955.187500", "094956.677500", "094958.167500", "094959.657500", "095001.147500", "095002.637500", "095004.127500", "095005.617500", "095007.107500", "095008.597500", "095010.087500", "095011.577500", "095013.067500", "095014.557500", "095016.047500", "095017.537500", "095019.027500", "095020.517500", "095022.007500", "095023.497500", "095024.987500", "095026.477500", "095027.967500", "095029.457500", "095030.947500", "095032.437500", "095033.927500", "095035.417500", "095036.907500", "095038.397500", "095039.887500", "095041.377500", "095042.867500", "095044.357500", "095045.847500", "095047.337500", "095048.827500", "095050.317500", "095051.807500", "095053.297500", "095054.787500", "095056.277500", "095057.767500", "095059.257500", "095100.747500", "095102.237500", "095103.727500", "095105.217500", "095106.707500", "095108.197500", "095109.687500", "095111.177500", "095112.667500", "095114.157500", "095115.647500", "095117.137500", "095118.627500", "095120.117500", "095121.607500", "095123.097500", "095124.587500", "095126.077500", "095127.567500", "095129.057500", "095130.547500", "095132.037500", "095133.527500", "095135.017500", "095136.507500", "095137.997500", "095139.487500", "095140.977500", "095142.467500", "095143.957500", "095145.447500", "095146.937500", "095148.427500", "095149.917500", "095151.407500", "095152.897500", "095154.387500", "095155.877500", "095157.367500", "095158.857500", "095200.347500", "095201.837500", "095203.327500", "095204.817500", "095206.307500", "095207.797500", "095209.287500", "095210.777500", "095212.267500", "095213.757500", "095215.247500", "095216.737500", "095218.227500", "095219.717500", "095221.207500", "095222.697500", "095224.187500", "095225.677500", "095227.167500", "095228.657500", "095230.147500", "095231.637500", "095233.127500", "095234.617500", "095236.107500", "095237.597500", "095239.087500", "095240.577500", "095242.067500", "095243.557500", "095245.047500", "095246.537500", "095248.027500", "095249.517500", "095251.007500", "095252.497500", "095253.987500", "095255.477500", "095256.967500", "095258.457500", "095259.947500", "095301.437500", "095302.927500", "095304.417500", "095305.907500", "095307.397500", "095308.887500", "095310.377500", "095311.867500", "095313.357500", "095314.847500", "095316.337500", "095317.827500", "095319.317500", "095320.807500", "095322.297500", "095323.787500", "095325.277500", "095326.767500", "095328.257500", "095329.747500", "095331.237500", "095332.727500", "095334.217500", "095335.707500", "095337.197500", "095338.687500", "095340.177500", "095341.667500", "095343.157500", "095344.647500", "095346.137500", "095347.627500", "095349.117500", "095350.607500", "095352.097500", "095353.587500", "095355.077500", "095356.567500", "095358.057500", "095359.547500", "095401.037500", "095402.527500", "095404.017500", "095405.507500", "095406.997500", "095408.487500", "095409.977500", "095411.467500", "095412.957500", "095414.447500", "095415.937500", "095417.427500", "095418.917500", "095420.407500", "095421.897500", "095423.387500", "095424.877500", "095426.367500", "095427.857500", "095429.347500", "095430.837500", "095432.327500", "095433.817500", "095435.307500", "095436.797500", "095438.287500", "095439.777500", "095441.267500", "095442.757500", "095444.247500", "095445.737500", "095447.227500", "095448.717500", "095450.207500", "095451.697500", "095453.187500", "095454.677500", "095456.167500", "095457.657500", "095459.147500", "095500.637500", "095502.127500", "095503.617500", "095505.107500", "095506.597500", "095508.087500", "095509.577500", "095511.067500", "095512.557500", "095514.047500", "095515.537500", "095517.027500", "095518.517500", "095520.007500", "095521.497500", "095522.987500", "095524.477500", "095525.967500", "095527.457500", "095528.947500", "095530.437500", "095531.927500", "095533.417500", "095534.907500", "095536.397500", "095537.887500", "095539.377500", "095540.867500", "095542.357500", "095543.847500", "095545.337500", "095546.827500", "095548.317500", "095549.807500", "095551.297500", "095552.787500", "095554.277500", "095555.767500", "095557.257500", "095558.747500", "095600.237500", "095601.727500", "095603.217500", "095604.707500", "095606.197500", "095607.687500", "095609.177500", "095610.667500", "095612.157500", "095613.647500", "095615.137500", "095616.627500", "095618.117500", "095619.607500", "095621.097500", "095622.587500", "095624.077500", "095625.567500", "095627.057500", "095628.547500", "095630.037500", "095631.527500", "095633.017500", "095634.507500", "095635.997500", "095637.487500", "095638.977500", "095640.467500", "095641.957500", "095643.447500", "095644.937500", "095646.427500", "095647.917500", "095649.407500", "095650.897500", "095652.387500", "095653.877500", "095655.367500", "095656.857500", "095658.347500"],
      "ContentTime": ["094638.109000", "094638.112000", "094638.115000", "094638.118000", "094638.121000", "094638.124000", "094638.127000", "094638.130000", "094638.133000", "094638.135000", "094638.138000", "094638.141000", "094638.144000", "094638.147000", "094638.150000", "094638.153000", "094638.156000", "094638.159000", "094638.162000", "094638.165000", "094638.168000", "094638.171000", "094638.180000", "094638.183000", "094638.186000", "094638.188000", "094638.191000", "094638.194000", "094638.197000", "094638.200000", "094638.203000", "094658.075000", "094658.078000", "094658.081000", "094658.084000", "094658.087000", "094658.090000", "094658.092000", "094658.096000", "094658.098000", "094658.101000", "094658.104000", "094658.107000", "094658.110000", "094658.113000", "094658.116000", "094658.119000", "094658.122000", "094658.125000", "094658.127000", "094658.130000", "094718.075000", "094718.078000", "094718.081000", "094718.084000", "094718.087000", "094718.090000", "094718.093000", "094718.095000", "094718.098000", "094718.101000", "094718.104000", "094718.107000", "094718.110000", "094718.113000", "094718.116000", "094718.119000", "094718.122000", "094718.124000", "094718.127000", "094718.130000", "094738.075000", "094738.092000", "094738.094000", "094738.097000", "094738.100000", "094738.103000", "094738.106000", "094738.109000", "094738.112000", "094738.115000", "094738.118000", "094738.121000", "094738.124000", "094738.127000", "094738.129000", "094738.132000", "094738.135000", "094738.138000", "094738.141000", "094738.144000", "094738.147000", "094818.076000", "094818.079000", "094818.082000", "094818.085000", "094818.088000", "094818.091000", "094818.094000", "094818.096000", "094818.099000", "094818.102000", "094818.105000", "094818.108000", "094818.111000", "094818.114000", "094818.117000", "094818.120000", "094818.123000", "094818.125000", "094818.128000", "094818.131000", "094818.134000", "094818.137000", "094818.140000", "094818.143000", "094818.146000", "094818.149000", "094818.152000", "094818.155000", "094818.158000", "094818.161000", "094818.163000", "094818.166000", "094858.075000", "094858.078000", "094858.081000", "094858.084000", "094858.087000", "094858.090000", "094858.093000", "094858.096000", "094858.099000", "094858.101000", "094858.104000", "094858.107000", "094858.110000", "094858.113000", "094858.116000", "094858.119000", "094858.122000", "094858.125000", "094858.128000", "094858.131000", "094858.134000", "094858.136000", "094858.139000", "094858.142000", "094858.145000", "094858.148000", "094858.151000", "094938.075000", "094938.078000", "094938.081000", "094938.084000", "094938.087000", "094938.090000", "094938.093000", "094938.096000", "094938.099000", "094938.102000", "094938.104000", "094938.107000", "094938.110000", "094938.113000", "094938.116000", "094938.119000", "094938.122000", "094938.125000", "094938.128000", "094938.141000", "094938.144000", "094938.147000", "094938.150000", "094938.152000", "094938.155000", "094938.158000", "094938.161000", "095018.076000", "095018.079000", "095018.082000", "095018.085000", "095018.095000", "095018.098000", "095018.101000", "095018.104000", "095018.107000", "095018.110000", "095018.113000", "095018.116000", "095018.119000", "095018.122000", "095018.125000", "095018.127000", "095018.131000", "095018.134000", "095018.136000", "095018.139000", "095018.142000", "095018.145000", "095018.148000", "095018.151000", "095018.154000", "095018.157000", "095018.160000", "095058.076000", "095058.079000", "095058.082000", "095058.085000", "095058.088000", "095058.091000", "095058.094000", "095058.097000", "095058.100000", "095058.103000", "095058.105000", "095058.108000", "095058.111000", "095058.114000", "095058.117000", "095058.120000", "095058.123000", "095058.126000", "095058.129000", "095058.132000", "095058.135000", "095058.138000", "095058.141000", "095058.144000", "095058.147000", "095058.149000", "095058.152000", "095138.075000", "095138.078000", "095138.081000", "095138.084000", "095138.087000", "095138.090000", "095138.093000", "095138.096000", "095138.099000", "095138.102000", "095138.104000", "095138.107000", "095138.110000", "095138.113000", "095138.116000", "095138.119000", "095138.122000", "095138.125000", "095138.128000", "095138.131000", "095138.134000", "095138.137000", "095138.140000", "095138.143000", "095138.146000", "095138.149000", "095218.075000", "095218.078000", "095218.081000", "095218.084000", "095218.087000", "095218.090000", "095218.093000", "095218.096000", "095218.099000", "095218.102000", "095218.105000", "095218.107000", "095218.110000", "095218.113000", "095218.116000", "095218.119000", "095218.122000", "095218.125000", "095218.128000", "095218.131000", "095218.134000", "095218.137000", "095218.139000", "095218.142000", "095218.145000", "095218.148000", "095218.151000", "095258.076000", "095258.079000", "095258.082000", "095258.086000", "095258.090000", "095258.093000", "095258.096000", "095258.099000", "095258.102000", "095258.105000", "095258.108000", "095258.111000", "095258.114000", "095258.117000", "095258.120000", "095258.123000", "095258.126000", "095258.129000", "095258.132000", "095258.135000", "095258.138000", "095258.141000", "095258.144000", "095258.147000", "095258.150000", "095258.153000", "095258.156000", "095338.075000", "095338.078000", "095338.082000", "095338.084000", "095338.087000", "095338.090000", "095338.094000", "095338.097000", "095338.100000", "095338.104000", "095338.107000", "095338.110000", "095338.113000", "095338.116000", "095338.119000", "095338.122000", "095338.125000", "095338.128000", "095338.131000", "095338.134000", "095338.137000", "095338.140000", "095338.144000", "095338.147000", "095338.151000", "095338.155000", "095338.158000", "095418.082000", "095418.085000", "095418.088000", "095418.091000", "095418.094000", "095418.097000", "095418.100000", "095418.103000", "095418.106000", "095418.109000", "095418.112000", "095418.115000", "095418.118000", "095418.121000", "095418.124000", "095418.126000", "095418.129000", "095418.132000", "095418.135000", "095418.138000", "095418.141000", "095418.144000", "095418.147000", "095418.150000", "095418.153000", "095418.156000", "095418.159000", "095458.076000", "095458.079000", "095458.082000", "095458.085000", "095458.088000", "095458.091000", "095458.094000", "095458.097000", "095458.099000", "095458.102000", "095458.105000", "095458.108000", "095458.111000", "095458.114000", "095458.117000", "095458.120000", "095458.123000", "095458.126000", "095458.129000", "095458.131000", "095458.134000", "095458.137000", "095458.140000", "095458.143000", "095458.146000", "095458.149000", "095458.152000", "095538.076000", "095538.079000", "095538.082000", "095538.086000", "095538.089000", "095538.092000", "095538.095000", "095538.098000", "095538.101000", "095538.104000", "095538.107000", "095538.110000", "095538.113000", "095538.115000", "095538.118000", "095538.121000", "095538.124000", "095538.127000", "095538.130000", "095538.133000", "095538.136000", "095538.139000", "095538.141000", "095538.145000", "095538.148000", "095538.151000", "095618.075000", "095618.078000", "095618.081000", "095618.084000", "095618.087000", "095618.090000", "095618.093000", "095618.096000", "095618.099000", "095618.102000", "095618.105000", "095618.108000", "095618.110000", "095618.114000", "095618.116000", "095618.119000", "095618.122000", "095618.125000", "095618.128000", "095618.131000", "095618.134000", "095618.137000", "095618.140000", "095618.143000", "095618.145000", "095618.149000", "095618.152000", "095658.075000", "095658.078000", "095658.081000", "095658.084000", "095658.087000", "095658.090000", "095658.093000", "095658.096000", "095658.099000", "095658.102000", "095658.105000", "095658.108000", "095658.111000", "095658.114000", "095658.117000", "095658.119000", "095658.123000", "095658.125000", "095658.128000", "095658.131000", "095658.134000", "095658.137000", "095658.140000", "095658.143000", "095658.146000", "095658.149000", "095658.152000", "095701.432000", "095701.436000"],
