{
  "AcquisitionMatrixPE": 104,
  "AcquisitionNumber": 1,
  "AcquisitionTime": "09:57:56.180000",
  "BandwidthPerPixelPhaseEncode": 17.17,
  "BaseResolution": 104,
  "BodyPartExamined": "BRAIN",
  "CoilString": "HC1-7;NC1_2",
  "ConsistencyInfo": "N4_VE11C_LATEST_20160120",
  "ConversionSoftware": "dcm2niix",
  "ConversionSoftwareVersion": "v1.0.20190902",
  "DerivedVendorReportedEchoSpacing": 0.000560011,
  "DeviceSerialNumber": "167006",
  "DwellTime": 2.1e-06,
  "EchoTime": 0.037,
  "EchoTrainLength": 104,
  "EffectiveEchoSpacing": 0.000560011,
  "FlipAngle": 52,
  "ImageComments": "Unaliased_MB4_PE3_LB",
  "ImageOrientationPatientDICOM": [0.999368, 0.00365853, -0.0353661, -0.0120358, 0.970777, -0.23968],
  "ImageType": [
    "ORIGINAL",
    "PRIMARY",
    "M",
    "MB",
    "ND",
    "MOSAIC"
],
  "ImagingFrequency": 123.259,
  "InPlanePhaseEncodingDirectionDICOM": "COL",
  "InstitutionAddress": "Chemin_Queen-Mary_4565_Montreal_District_CA_H3W_1W5",
  "InstitutionName": "IUGM",
  "InstitutionalDepartmentName": "Department",
  "MRAcquisitionType": "2D",
  "MagneticFieldStrength": 3,
  "Manufacturer": "Siemens",
  "ManufacturersModelName": "Prisma_fit",
  "Modality": "MR",
  "MultibandAccelerationFactor": 4,
  "PartialFourier": 1,
  "PatientPosition": "HFS",
  "PercentPhaseFOV": 100,
  "PhaseEncodingDirection": "j",
  "PhaseEncodingSteps": 104,
  "PhaseResolution": 1,
  "PixelBandwidth": 2290,
  "ProcedureStepDescription": "games_shinobi",
  "ProtocolName": "func_task-shinobi_run-4",
  "PulseSequenceDetails": "%CustomerSeq%_cmrr_mbep2d_bold",
  "ReceiveCoilActiveElements": "HC1-7;NC1,2",
  "ReceiveCoilName": "HeadNeck_64",
  "ReconMatrixPE": 104,
  "RepetitionTime": 1.49,
  "SAR": 0.0269512,
  "ScanOptions": "FS",
  "ScanningSequence": "EP",
  "SequenceName": "epfid2d1_104",
  "SequenceVariant": "SK_SS",
  "SeriesDescription": "func_task-shinobi_run-4",
  "SeriesNumber": 17,
  "ShimSetting": [614, -7246, -8839, 633, 3, -259, 14, 30],
  "SliceThickness": 2,
  "SliceTiming": [0, 0.7825, 0.0975, 0.8825, 0.195, 0.98, 0.2925, 1.0775, 0.3925, 1.175, 0.49, 1.2725, 0.5875, 1.3725, 0.685, 0, 0.7825, 0.0975, 0.8825, 0.195, 0.98, 0.2925, 1.0775, 0.3925, 1.175, 0.49, 1.2725, 0.5875, 1.3725, 0.685, 0, 0.7825, 0.0975, 0.8825, 0.195, 0.98, 0.2925, 1.0775, 0.3925, 1.175, 0.49, 1.2725, 0.5875, 1.3725, 0.685, 0, 0.7825, 0.0975, 0.8825, 0.195, 0.98, 0.2925, 1.0775, 0.3925, 1.175, 0.49, 1.2725, 0.5875, 1.3725, 0.685],
  "SoftwareVersions": "syngo_MR_E11",
  "SpacingBetweenSlices": 2,
  "StationName": "MRC35049",
  "TaskName": "shinobi",
  "TotalReadoutTime": 0.0576811,
  "TxRefAmp": 212.381,
  "WipMemBlock": "8d4721af-c286-4e5c-aef6-ed0eb8ebfc38||Sequence: R016 ve11c/master r/e634e98; Dec 19 2017 11:00:25 by eja",
  "dcmmeta_affine": [
    [-1.9987354278564453, -0.02407155930995941, -0.06691154837608337, 106.90833282470703],
    [-0.00731706852093339, 1.9415547847747803, -0.47990769147872925, -72.29728698730469],
    [-0.07073228806257248, 0.4793594777584076, 1.9404152631759644, -54.80718231201172],
    [0.0, 0.0, 0.0, 1.0]
],
  "dcmmeta_reorient_transform": [
    [0.0, -1.0, 0.0, 103.0],
    [1.0, 0.0, 0.0, 0.0],
    [0.0, 0.0, 1.0, 0.0],
    [0.0, 0.0, 0.0, 1.0]
],
  "dcmmeta_shape": [104, 104, 60, 471],
  "dcmmeta_slice_dim": 2,
  "dcmmeta_version": 0.6,
  "global": {
    "const": {
      "AcquisitionMatrix": [104, 0, 0, 104],
      "AngioFlag": "N",
      "BitsAllocated": 16,
      "BitsStored": 16,
      "BodyPartExamined": "BRAIN",
      "Columns": 832,
      "EchoNumbers": 1,
      "EchoTime": 37.0,
      "EchoTrainLength": 104,
      "FlipAngle": 52.0,
      "HighBit": 15,
      "ImageOrientationPatient": [0.99936772565274, 0.0036585342428, -0.0353661427196, -0.0120357798895, 0.97077740298275, -0.2396797318517],
      "ImagePositionPatient": [-823.20661988168, -837.07222389581, 194.80023810847],
      "ImageType": [
        "ORIGINAL",
        "PRIMARY",
        "M",
        "MB",
        "ND",
        "MOSAIC"
],
      "ImagedNucleus": "1H",
      "ImagingFrequency": 123.259014,
      "InPlanePhaseEncodingDirection": "COL",
      "MRAcquisitionType": "2D",
      "MagneticFieldStrength": 3.0,
      "Manufacturer": "SIEMENS",
      "ManufacturerModelName": "Prisma_fit",
      "Modality": "MR",
      "NumberOfAverages": 1.0,
      "NumberOfPhaseEncodingSteps": 104,
      "PercentPhaseFieldOfView": 100.0,
      "PercentSampling": 100.0,
      "PerformedProcedureStepStartTime": "090835.541000",
      "PhotometricInterpretation": "MONOCHROME2",
      "PixelBandwidth": 2290.0,
      "PixelRepresentation": 0,
      "PixelSpacing": [2.0, 2.0],
      "ProtocolName": "func_task-shinobi_run-4",
      "RepetitionTime": 1490.0,
      "Rows": 832,
      "SAR": 0.02695123929583,
      "SamplesPerPixel": 1,
      "ScanOptions": "FS",
      "ScanningSequence": "EP",
      "SequenceName": "epfid2d1_104",
      "SequenceVariant": [
        "SK",
        "SS"
],
      "SeriesDescription": "func_task-shinobi_run-4",
      "SeriesNumber": 17,
      "SeriesTime": "095922.552000",
      "SliceLocation": -39.403037842678,
      "SliceThickness": 2.0,
      "SmallestImagePixelValue": 0,
      "SoftwareVersions": "syngo MR E11",
      "SpacingBetweenSlices": 1.9999999922324,
      "SpecificCharacterSet": "ISO_IR 100",
      "StudyID": "1",
      "StudyTime": "090835.400000",
      "TransmitCoilName": "Body",
      "VariableFlipAngleFlag": "N",
      "WindowCenterWidthExplanation": "Algo1",
      "dBdt": 0.0},
    "slices": {}
  },
  "time": {
    "samples": {
      "AcquisitionNumber": [1, 2, 3, 4, 5, 6, 7, 8, 9, 10, 11, 12, 13, 14, 15, 16, 17, 18, 19, 20, 21, 22, 23, 24, 25, 26, 27, 28, 29, 30, 31, 32, 33, 34, 35, 36, 37, 38, 39, 40, 41, 42, 43, 44, 45, 46, 47, 48, 49, 50, 51, 52, 53, 54, 55, 56, 57, 58, 59, 60, 61, 62, 63, 64, 65, 66, 67, 68, 69, 70, 71, 72, 73, 74, 75, 76, 77, 78, 79, 80, 81, 82, 83, 84, 85, 86, 87, 88, 89, 90, 91, 92, 93, 94, 95, 96, 97, 98, 99, 100, 101, 102, 103, 104, 105, 106, 107, 108, 109, 110, 111, 112, 113, 114, 115, 116, 117, 118, 119, 120, 121, 122, 123, 124, 125, 126, 127, 128, 129, 130, 131, 132, 133, 134, 135, 136, 137, 138, 139, 140, 141, 142, 143, 144, 145, 146, 147, 148, 149, 150, 151, 152, 153, 154, 155, 156, 157, 158, 159, 160, 161, 162, 163, 164, 165, 166, 167, 168, 169, 170, 171, 172, 173, 174, 175, 176, 177, 178, 179, 180, 181, 182, 183, 184, 185, 186, 187, 188, 189, 190, 191, 192, 193, 194, 195, 196, 197, 198, 199, 200, 201, 202, 203, 204, 205, 206, 207, 208, 209, 210, 211, 212, 213, 214, 215, 216, 217, 218, 219, 220, 221, 222, 223, 224, 225, 226, 227, 228, 229, 230, 231, 232, 233, 234, 235, 236, 237, 238, 239, 240, 241, 242, 243, 244, 245, 246, 247, 248, 249, 250, 251, 252, 253, 254, 255, 256, 257, 258, 259, 260, 261, 262, 263, 264, 265, 266, 267, 268, 269, 270, 271, 272, 273, 274, 275, 276, 277, 278, 279, 280, 281, 282, 283, 284, 285, 286, 287, 288, 289, 290, 291, 292, 293, 294, 295, 296, 297, 298, 299, 300, 301, 302, 303, 304, 305, 306, 307, 308, 309, 310, 311, 312, 313, 314, 315, 316, 317, 318, 319, 320, 321, 322, 323, 324, 325, 326, 327, 328, 329, 330, 331, 332, 333, 334, 335, 336, 337, 338, 339, 340, 341, 342, 343, 344, 345, 346, 347, 348, 349, 350, 351, 352, 353, 354, 355, 356, 357, 358, 359, 360, 361, 362, 363, 364, 365, 366, 367, 368, 369, 370, 371, 372, 373, 374, 375, 376, 377, 378, 379, 380, 381, 382, 383, 384, 385, 386, 387, 388, 389, 390, 391, 392, 393, 394, 395, 396, 397, 398, 399, 400, 401, 402, 403, 404, 405, 406, 407, 408, 409, 410, 411, 412, 413, 414, 415, 416, 417, 418, 419, 420, 421, 422, 423, 424, 425, 426, 427, 428, 429, 430, 431, 432, 433, 434, 435, 436, 437, 438, 439, 440, 441, 442, 443, 444, 445, 446, 447, 448, 449, 450, 451, 452, 453, 454, 455, 456, 457, 458, 459, 460, 461, 462, 463, 464, 465, 466, 467, 468, 469, 470, 471],
      "AcquisitionTime": ["095756.180000", "095757.670000", "095759.160000", "095800.650000", "095802.140000", "095803.630000", "095805.120000", "095806.610000", "095808.100000", "095809.590000", "095811.080000", "095812.570000", "095814.060000", "095815.550000", "095817.040000", "095818.530000", "095820.020000", "095821.510000", "095823.000000", "095824.490000", "095825.980000", "095827.470000", "095828.960000", "095830.450000", "095831.940000", "095833.430000", "095834.920000", "095836.410000", "095837.900000", "095839.390000", "095840.880000", "095842.370000", "095843.860000", "095845.350000", "095846.840000", "095848.330000", "095849.820000", "095851.310000", "095852.800000", "095854.290000", "095855.780000", "095857.270000", "095858.760000", "095900.250000", "095901.740000", "095903.230000", "095904.720000", "095906.210000", "095907.700000", "095909.190000", "095910.680000", "095912.170000", "095913.660000", "095915.150000", "095916.640000", "095918.130000", "095919.620000", "095921.110000", "095922.600000", "095924.090000", "095925.580000", "095927.070000", "095928.560000", "095930.050000", "095931.540000", "095933.030000", "095934.520000", "095936.010000", "095937.500000", "095938.990000", "095940.480000", "095941.970000", "095943.460000", "095944.950000", "095946.440000", "095947.930000", "095949.420000", "095950.910000", "095952.400000", "095953.890000", "095955.380000", "095956.870000", "095958.360000", "095959.850000", "100001.340000", "100002.830000", "100004.320000", "100005.810000", "100007.300000", "100008.790000", "100010.280000", "100011.770000", "100013.260000", "100014.750000", "100016.240000", "100017.730000", "100019.220000", "100020.710000", "100022.200000", "100023.690000", "100025.180000", "100026.670000", "100028.160000", "100029.650000", "100031.140000", "100032.630000", "100034.120000", "100035.610000", "100037.100000", "100038.590000", "100040.080000", "100041.570000", "100043.060000", "100044.550000", "100046.040000", "100047.530000", "100049.020000", "100050.510000", "100052.000000", "100053.490000", "100054.980000", "100056.470000", "100057.960000", "100059.450000", "100100.940000", "100102.430000", "100103.920000", "100105.410000", "100106.900000", "100108.390000", "100109.880000", "100111.370000", "100112.860000", "100114.350000", "100115.840000", "100117.330000", "100118.820000", "100120.310000", "100121.800000", "100123.290000", "100124.780000", "100126.270000", "100127.760000", "100129.250000", "100130.740000", "100132.230000", "100133.720000", "100135.210000", "100136.700000", "100138.190000", "100139.680000", "100141.170000", "100142.660000", "100144.150000", "100145.640000", "100147.130000", "100148.620000", "100150.110000", "100151.600000", "100153.090000", "100154.580000", "100156.070000", "100157.560000", "100159.050000", "100200.540000", "100202.030000", "100203.520000", "100205.010000", "100206.500000", "100207.990000", "100209.480000", "100210.970000", "100212.460000", "100213.950000", "100215.440000", "100216.930000", "100218.420000", "100219.910000", "100221.400000", "100222.890000", "100224.380000", "100225.870000", "100227.360000", "100228.850000", "100230.340000", "100231.830000", "100233.320000", "100234.810000", "100236.300000", "100237.790000", "100239.280000", "100240.770000", "100242.260000", "100243.750000", "100245.240000", "100246.730000", "100248.220000", "100249.710000", "100251.200000", "100252.690000", "100254.180000", "100255.670000", "100257.160000", "100258.650000", "100300.140000", "100301.630000", "100303.120000", "100304.610000", "100306.100000", "100307.590000", "100309.080000", "100310.570000", "100312.060000", "100313.550000", "100315.040000", "100316.530000", "100318.020000", "100319.510000", "100321.000000", "100322.490000", "100323.980000", "100325.470000", "100326.960000", "100328.450000", "100329.940000", "100331.430000", "100332.920000", "100334.410000", "100335.900000", "100337.390000", "100338.880000", "100340.370000", "100341.860000", "100343.350000", "100344.840000", "100346.330000", "100347.820000", "100349.310000", "100350.800000", "100352.290000", "100353.780000", "100355.270000", "100356.760000", "100358.250000", "100359.740000", "100401.230000", "100402.720000", "100404.210000", "100405.700000", "100407.190000", "100408.680000", "100410.170000", "100411.660000", "100413.150000", "100414.640000", "100416.130000", "100417.620000", "100419.110000", "100420.600000", "100422.090000", "100423.580000", "100425.070000", "100426.560000", "100428.050000", "100429.540000", "100431.030000", "100432.520000", "100434.010000", "100435.500000", "100436.990000", "100438.480000", "100439.970000", "100441.460000", "100442.950000", "100444.440000", "100445.930000", "100447.420000", "100448.910000", "100450.400000", "100451.890000", "100453.380000", "100454.870000", "100456.360000", "100457.850000", "100459.340000", "100500.830000", "100502.320000", "100503.810000", "100505.300000", "100506.790000", "100508.280000", "100509.770000", "100511.260000", "100512.750000", "100514.240000", "100515.730000", "100517.220000", "100518.710000", "100520.200000", "100521.690000", "100523.180000", "100524.670000", "100526.160000", "100527.650000", "100529.140000", "100530.630000", "100532.120000", "100533.610000", "100535.100000", "100536.590000", "100538.080000", "100539.570000", "100541.060000", "100542.550000", "100544.040000", "100545.530000", "100547.020000", "100548.510000", "100550.000000", "100551.490000", "100552.980000", "100554.470000", "100555.960000", "100557.450000", "100558.940000", "100600.430000", "100601.920000", "100603.410000", "100604.900000", "100606.390000", "100607.880000", "100609.370000", "100610.860000", "100612.350000", "100613.840000", "100615.330000", "100616.820000", "100618.310000", "100619.800000", "100621.290000", "100622.780000", "100624.270000", "100625.760000", "100627.250000", "100628.740000", "100630.230000", "100631.720000", "100633.210000", "100634.700000", "100636.190000", "100637.680000", "100639.170000", "100640.660000", "100642.150000", "100643.640000", "100645.130000", "100646.620000", "100648.110000", "100649.600000", "100651.090000", "100652.580000", "100654.070000", "100655.560000", "100657.050000", "100658.540000", "100700.030000", "100701.520000", "100703.010000", "100704.500000", "100705.990000", "100707.480000", "100708.970000", "100710.460000", "100711.950000", "100713.440000", "100714.930000", "100716.420000", "100717.910000", "100719.400000", "100720.890000", "100722.380000", "100723.870000", "100725.360000", "100726.850000", "100728.340000", "100729.830000", "100731.320000", "100732.810000", "100734.300000", "100735.790000", "100737.280000", "100738.770000", "100740.260000", "100741.750000", "100743.240000", "100744.730000", "100746.220000", "100747.710000", "100749.200000", "100750.690000", "100752.180000", "100753.670000", "100755.160000", "100756.650000", "100758.140000", "100759.630000", "100801.120000", "100802.610000", "100804.100000", "100805.590000", "100807.080000", "100808.570000", "100810.060000", "100811.550000", "100813.040000", "100814.530000", "100816.020000", "100817.510000", "100819.000000", "100820.490000", "100821.980000", "100823.470000", "100824.960000", "100826.450000", "100827.940000", "100829.430000", "100830.920000", "100832.410000", "100833.900000", "100835.390000", "100836.880000", "100838.370000", "100839.860000", "100841.350000", "100842.840000", "100844.330000", "100845.820000", "100847.310000", "100848.800000", "100850.290000", "100851.780000", "100853.270000", "100854.760000", "100856.250000", "100857.740000", "100859.230000", "100900.720000", "100902.210000", "100903.700000", "100905.190000", "100906.680000", "100908.170000", "100909.660000", "100911.150000", "100912.640000", "100914.130000", "100915.620000", "100917.110000", "100918.600000", "100920.090000", "100921.580000", "100923.070000", "100924.560000", "100926.050000", "100927.540000", "100929.030000", "100930.520000", "100932.010000", "100933.500000", "100934.990000", "100936.480000"],
      "ContentTime": ["095922.555000", "095922.558000", "095922.561000", "095922.564000", "095922.567000", "095922.570000", "095922.573000", "095922.576000", "095922.586000", "095922.589000", "095922.592000", "095922.595000", "095922.598000", "095922.601000", "095922.604000", "095922.607000", "095922.610000", "095922.613000", "095922.616000", "095922.619000", "095922.621000", "095922.624000", "095922.627000", "095922.630000", "095922.633000", "095922.636000", "095922.639000", "095922.642000", "095922.645000", "095922.648000", "095922.651000", "095922.663000", "095942.513000", "095942.516000", "095942.519000", "095942.522000", "095942.525000", "095942.528000", "095942.531000", "095942.534000", "095942.536000", "095942.539000", "095942.542000", "095942.545000", "095942.548000", "095942.551000", "095942.554000", "095942.557000", "095942.560000", "095942.564000", "095942.567000", "095942.570000", "100002.513000", "100002.516000", "100002.519000", "100002.522000", "100002.525000", "100002.528000", "100002.531000", "100002.533000", "100002.542000", "100002.545000", "100002.547000", "100002.550000", "100002.553000", "100002.556000", "100002.559000", "100002.562000", "100002.565000", "100002.568000", "100002.571000", "100002.574000", "100022.513000", "100022.516000", "100022.529000", "100022.532000", "100022.535000", "100022.538000", "100022.542000", "100022.545000", "100022.548000", "100022.550000", "100022.553000", "100022.556000", "100022.559000", "100022.562000", "100022.565000", "100022.568000", "100022.571000", "100022.574000", "100022.577000", "100022.580000", "100102.513000", "100102.516000", "100102.519000", "100102.522000", "100102.525000", "100102.528000", "100102.531000", "100102.534000", "100102.537000", "100102.540000", "100102.543000", "100102.546000", "100102.548000", "100102.551000", "100102.554000", "100102.557000", "100102.560000", "100102.563000", "100102.566000", "100102.569000", "100102.572000", "100102.575000", "100102.578000", "100102.581000", "100102.584000", "100102.587000", "100102.590000", "100102.593000", "100102.595000", "100102.599000", "100102.607000", "100102.610000", "100142.513000", "100142.516000", "100142.519000", "100142.522000", "100142.525000", "100142.528000", "100142.531000", "100142.534000", "100142.537000", "100142.540000", "100142.543000", "100142.546000", "100142.549000", "100142.551000", "100142.554000", "100142.557000", "100142.560000", "100142.563000", "100142.566000", "100142.569000", "100142.572000", "100142.575000", "100142.578000", "100142.581000", "100142.584000", "100142.586000", "100142.589000", "100222.513000", "100222.516000", "100222.519000", "100222.522000", "100222.525000", "100222.528000", "100222.531000", "100222.534000", "100222.537000", "100222.539000", "100222.543000", "100222.545000", "100222.548000", "100222.551000", "100222.554000", "100222.557000", "100222.560000", "100222.563000", "100222.580000", "100222.583000", "100222.586000", "100222.589000", "100222.592000", "100222.595000", "100222.598000", "100222.601000", "100222.604000", "100302.513000", "100302.516000", "100302.519000", "100302.522000", "100302.525000", "100302.528000", "100302.531000", "100302.534000", "100302.537000", "100302.540000", "100302.543000", "100302.546000", "100302.549000", "100302.552000", "100302.555000", "100302.558000", "100302.560000", "100302.564000", "100302.566000", "100302.569000", "100302.572000", "100302.575000", "100302.578000", "100302.581000", "100302.584000", "100302.587000", "100302.590000", "100342.514000", "100342.517000", "100342.520000", "100342.523000", "100342.526000", "100342.529000", "100342.532000", "100342.535000", "100342.538000", "100342.541000", "100342.544000", "100342.547000", "100342.550000", "100342.552000", "100342.555000", "100342.558000", "100342.561000", "100342.564000", "100342.567000", "100342.570000", "100342.573000", "100342.576000", "100342.579000", "100342.582000", "100342.585000", "100342.588000", "100422.513000", "100422.516000", "100422.519000", "100422.522000", "100422.525000", "100422.528000", "100422.542000", "100422.545000", "100422.548000", "100422.551000", "100422.554000", "100422.557000", "100422.560000", "100422.563000", "100422.566000", "100422.569000", "100422.572000", "100422.574000", "100422.578000", "100422.581000", "100422.583000", "100422.586000", "100422.589000", "100422.592000", "100422.595000", "100422.598000", "100422.601000", "100502.513000", "100502.516000", "100502.519000", "100502.522000", "100502.525000", "100502.528000", "100502.531000", "100502.534000", "100502.537000", "100502.540000", "100502.543000", "100502.546000", "100502.549000", "100502.552000", "100502.555000", "100502.558000", "100502.561000", "100502.564000", "100502.567000", "100502.570000", "100502.573000", "100502.576000", "100502.579000", "100502.582000", "100502.585000", "100502.588000", "100502.591000", "100542.513000", "100542.516000", "100542.519000", "100542.522000", "100542.525000", "100542.528000", "100542.531000", "100542.534000", "100542.537000", "100542.540000", "100542.543000", "100542.546000", "100542.549000", "100542.551000", "100542.554000", "100542.557000", "100542.560000", "100542.563000", "100542.566000", "100542.569000", "100542.572000", "100542.575000", "100542.578000", "100542.581000", "100542.584000", "100542.587000", "100542.590000", "100622.513000", "100622.516000", "100622.519000", "100622.522000", "100622.525000", "100622.528000", "100622.531000", "100622.534000", "100622.537000", "100622.540000", "100622.542000", "100622.545000", "100622.548000", "100622.703000", "100622.707000", "100622.710000", "100622.712000", "100622.715000", "100622.718000", "100622.721000", "100622.724000", "100622.727000", "100622.730000", "100622.736000", "100622.739000", "100622.742000", "100622.745000", "100642.513000", "100642.516000", "100642.519000", "100642.522000", "100642.525000", "100642.528000", "100642.531000", "100642.534000", "100642.537000", "100642.540000", "100642.543000", "100642.545000", "100642.548000", "100722.549000", "100722.552000", "100722.555000", "100722.558000", "100722.561000", "100722.564000", "100722.567000", "100722.570000", "100722.573000", "100722.576000", "100722.579000", "100722.582000", "100722.585000", "100722.588000", "100722.591000", "100722.594000", "100722.597000", "100722.600000", "100722.603000", "100722.606000", "100722.609000", "100722.611000", "100722.614000", "100722.617000", "100722.620000", "100722.623000", "100722.626000", "100802.513000", "100802.516000", "100802.519000", "100802.522000", "100802.525000", "100802.528000", "100802.531000", "100802.534000", "100802.537000", "100802.540000", "100802.543000", "100802.546000", "100802.549000", "100802.552000", "100802.555000", "100802.558000", "100802.560000", "100802.563000", "100802.566000", "100802.569000", "100802.572000", "100802.575000", "100802.578000", "100802.581000", "100802.584000", "100802.587000", "100802.590000", "100842.513000", "100842.516000", "100842.519000", "100842.522000", "100842.525000", "100842.528000", "100842.531000", "100842.534000", "100842.537000", "100842.540000", "100842.543000", "100842.546000", "100842.548000", "100842.552000", "100842.554000", "100842.557000", "100842.560000", "100842.563000", "100842.566000", "100842.569000", "100842.572000", "100842.575000", "100842.578000", "100842.581000", "100842.584000", "100842.587000", "100842.590000", "100922.513000", "100922.516000", "100922.519000", "100922.522000", "100922.531000", "100922.534000", "100922.537000", "100922.540000", "100922.543000", "100922.546000", "100922.549000", "100922.552000", "100922.555000", "100922.558000", "100922.561000", "100922.563000", "100922.577000", "100922.580000", "100922.583000", "100922.585000", "100922.589000", "100922.591000", "100922.594000", "100922.597000", "100922.600000", "100922.603000", "100922.606000", "100939.026000", "100939.029000", "100939.032000", "100939.035000", "100939.038000", "100939.041000", "100939.044000", "100939.047000", "100939.050000", "100939.053000", "100939.056000"],
