{
  "AcquisitionMatrixPE": 104,
  "AcquisitionNumber": 1,
  "AcquisitionTime": "16:18:18.045000",
  "BandwidthPerPixelPhaseEncode": 17.17,
  "BaseResolution": 104,
  "BodyPartExamined": "BRAIN",
  "CoilString": "HC1-7;NC1_2",
  "ConsistencyInfo": "N4_VE11C_LATEST_20160120",
  "ConversionSoftware": "dcm2niix",
  "ConversionSoftwareVersion": "v1.0.20190902",
  "DerivedVendorReportedEchoSpacing": 0.000560011,
  "DeviceSerialNumber": "167006",
  "DwellTime": 2.1e-06,
  "EchoTime": 0.037,
  "EchoTrainLength": 104,
  "EffectiveEchoSpacing": 0.000560011,
  "FlipAngle": 52,
  "ImageComments": "Unaliased_MB4_PE3_LB",
  "ImageOrientationPatientDICOM": [0.998843, -0.0471041, 0.00971213, 0.0474536, 0.932356, -0.358414],
  "ImageType": [
    "ORIGINAL",
    "PRIMARY",
    "M",
    "MB",
    "ND",
    "MOSAIC"
],
  "ImagingFrequency": 123.259,
  "InPlanePhaseEncodingDirectionDICOM": "COL",
  "InstitutionAddress": "Chemin_Queen-Mary_4565_Montreal_District_CA_H3W_1W5",
  "InstitutionName": "IUGM",
  "InstitutionalDepartmentName": "Department",
  "MRAcquisitionType": "2D",
  "MagneticFieldStrength": 3,
  "Manufacturer": "Siemens",
  "ManufacturersModelName": "Prisma_fit",
  "Modality": "MR",
  "MultibandAccelerationFactor": 4,
  "PartialFourier": 1,
  "PatientPosition": "HFS",
  "PercentPhaseFOV": 100,
  "PhaseEncodingDirection": "j",
  "PhaseEncodingSteps": 104,
  "PhaseResolution": 1,
  "PixelBandwidth": 2290,
  "ProcedureStepDescription": "games_shinobi",
  "ProtocolName": "func_task-shinobi_run-3",
  "PulseSequenceDetails": "%CustomerSeq%_cmrr_mbep2d_bold",
  "ReceiveCoilActiveElements": "HC1-7;NC1,2",
  "ReceiveCoilName": "HeadNeck_64",
  "ReconMatrixPE": 104,
  "RepetitionTime": 1.49,
  "SAR": 0.0295296,
  "ScanOptions": "FS",
  "ScanningSequence": "EP",
  "SequenceName": "epfid2d1_104",
  "SequenceVariant": "SK_SS",
  "SeriesDescription": "func_task-shinobi_run-3",
  "SeriesNumber": 13,
  "ShimSetting": [634, -7254, -8849, 599, 12, -252, -31, -21],
  "SliceThickness": 2,
  "SliceTiming": [0, 0.7825, 0.0975, 0.8825, 0.195, 0.98, 0.295, 1.0775, 0.3925, 1.175, 0.49, 1.2725, 0.5875, 1.3725, 0.685, 0, 0.7825, 0.0975, 0.8825, 0.195, 0.98, 0.295, 1.0775, 0.3925, 1.175, 0.49, 1.2725, 0.5875, 1.3725, 0.685, 0, 0.7825, 0.0975, 0.8825, 0.195, 0.98, 0.295, 1.0775, 0.3925, 1.175, 0.49, 1.2725, 0.5875, 1.3725, 0.685, 0, 0.7825, 0.0975, 0.8825, 0.195, 0.98, 0.295, 1.0775, 0.3925, 1.175, 0.49, 1.2725, 0.5875, 1.3725, 0.685],
  "SoftwareVersions": "syngo_MR_E11",
  "SpacingBetweenSlices": 2,
  "StationName": "MRC35049",
  "TaskName": "shinobi",
  "TotalReadoutTime": 0.0576811,
  "TxRefAmp": 217.133,
  "WipMemBlock": "619b6286-fdd5-4878-9c4b-1814f738b70f||Sequence: R016 ve11c/master r/e634e98; Dec 19 2017 11:00:25 by eja",
  "dcmmeta_affine": [
    [-1.9976855516433716, 0.094907246530056, -0.015655143186450005, 101.58814239501953],
    [0.09420810639858246, 1.864712119102478, -0.716919481754303, -67.80252838134766],
    [0.019424259662628174, 0.7168272733688354, 1.8670246601104736, -71.42242431640625],
    [0.0, 0.0, 0.0, 1.0]
],
  "dcmmeta_reorient_transform": [
    [0.0, -1.0, 0.0, 103.0],
    [1.0, 0.0, 0.0, 0.0],
    [0.0, 0.0, 1.0, 0.0],
    [0.0, 0.0, 0.0, 1.0]
],
  "dcmmeta_shape": [104, 104, 60, 469],
  "dcmmeta_slice_dim": 2,
  "dcmmeta_version": 0.6,
  "global": {
    "const": {
      "AcquisitionMatrix": [104, 0, 0, 104],
      "AngioFlag": "N",
      "BitsAllocated": 16,
      "BitsStored": 16,
      "BodyPartExamined": "BRAIN",
      "Columns": 832,
      "EchoNumbers": 1,
      "EchoTime": 37.0,
      "EchoTrainLength": 104,
      "FlipAngle": 52.0,
      "HighBit": 15,
      "ImageOrientationPatient": [0.9988427717146, -0.047104054233, 0.00971212995742, 0.04745362488429, 0.93235606137859, -0.3584136273859],
      "ImagePositionPatient": [-873.06736357649, -768.7262832569, 256.2654741076],
      "ImageType": [
        "ORIGINAL",
        "PRIMARY",
        "M",
        "MB",
        "ND",
        "MOSAIC"
],
      "ImagedNucleus": "1H",
      "ImagingFrequency": 123.258979,
      "InPlanePhaseEncodingDirection": "COL",
      "MRAcquisitionType": "2D",
      "MagneticFieldStrength": 3.0,
      "Manufacturer": "SIEMENS",
      "ManufacturerModelName": "Prisma_fit",
      "Modality": "MR",
      "NumberOfAverages": 1.0,
      "NumberOfPhaseEncodingSteps": 104,
      "PercentPhaseFieldOfView": 100.0,
      "PercentSampling": 100.0,
      "PerformedProcedureStepStartTime": "153244.417000",
      "PhotometricInterpretation": "MONOCHROME2",
      "PixelBandwidth": 2290.0,
      "PixelRepresentation": 0,
      "PixelSpacing": [2.0, 2.0],
      "ProtocolName": "func_task-shinobi_run-3",
      "RepetitionTime": 1490.0,
      "Rows": 832,
      "SAR": 0.02952958486645,
      "SamplesPerPixel": 1,
      "ScanOptions": "FS",
      "ScanningSequence": "EP",
      "SequenceName": "epfid2d1_104",
      "SequenceVariant": [
        "SK",
        "SS"
],
      "SeriesDescription": "func_task-shinobi_run-3",
      "SeriesNumber": 13,
      "SeriesTime": "161944.354000",
      "SliceLocation": -43.164428277774,
      "SliceThickness": 2.0,
      "SmallestImagePixelValue": 0,
      "SoftwareVersions": "syngo MR E11",
      "SpacingBetweenSlices": 1.9999999485426,
      "SpecificCharacterSet": "ISO_IR 100",
      "StudyID": "1",
      "StudyTime": "153244.342000",
      "TransmitCoilName": "Body",
      "VariableFlipAngleFlag": "N",
      "WindowCenterWidthExplanation": "Algo1",
      "dBdt": 0.0},
    "slices": {}
  },
  "time": {
    "samples": {
      "AcquisitionNumber": [1, 2, 3, 4, 5, 6, 7, 8, 9, 10, 11, 12, 13, 14, 15, 16, 17, 18, 19, 20, 21, 22, 23, 24, 25, 26, 27, 28, 29, 30, 31, 32, 33, 34, 35, 36, 37, 38, 39, 40, 41, 42, 43, 44, 45, 46, 47, 48, 49, 50, 51, 52, 53, 54, 55, 56, 57, 58, 59, 60, 61, 62, 63, 64, 65, 66, 67, 68, 69, 70, 71, 72, 73, 74, 75, 76, 77, 78, 79, 80, 81, 82, 83, 84, 85, 86, 87, 88, 89, 90, 91, 92, 93, 94, 95, 96, 97, 98, 99, 100, 101, 102, 103, 104, 105, 106, 107, 108, 109, 110, 111, 112, 113, 114, 115, 116, 117, 118, 119, 120, 121, 122, 123, 124, 125, 126, 127, 128, 129, 130, 131, 132, 133, 134, 135, 136, 137, 138, 139, 140, 141, 142, 143, 144, 145, 146, 147, 148, 149, 150, 151, 152, 153, 154, 155, 156, 157, 158, 159, 160, 161, 162, 163, 164, 165, 166, 167, 168, 169, 170, 171, 172, 173, 174, 175, 176, 177, 178, 179, 180, 181, 182, 183, 184, 185, 186, 187, 188, 189, 190, 191, 192, 193, 194, 195, 196, 197, 198, 199, 200, 201, 202, 203, 204, 205, 206, 207, 208, 209, 210, 211, 212, 213, 214, 215, 216, 217, 218, 219, 220, 221, 222, 223, 224, 225, 226, 227, 228, 229, 230, 231, 232, 233, 234, 235, 236, 237, 238, 239, 240, 241, 242, 243, 244, 245, 246, 247, 248, 249, 250, 251, 252, 253, 254, 255, 256, 257, 258, 259, 260, 261, 262, 263, 264, 265, 266, 267, 268, 269, 270, 271, 272, 273, 274, 275, 276, 277, 278, 279, 280, 281, 282, 283, 284, 285, 286, 287, 288, 289, 290, 291, 292, 293, 294, 295, 296, 297, 298, 299, 300, 301, 302, 303, 304, 305, 306, 307, 308, 309, 310, 311, 312, 313, 314, 315, 316, 317, 318, 319, 320, 321, 322, 323, 324, 325, 326, 327, 328, 329, 330, 331, 332, 333, 334, 335, 336, 337, 338, 339, 340, 341, 342, 343, 344, 345, 346, 347, 348, 349, 350, 351, 352, 353, 354, 355, 356, 357, 358, 359, 360, 361, 362, 363, 364, 365, 366, 367, 368, 369, 370, 371, 372, 373, 374, 375, 376, 377, 378, 379, 380, 381, 382, 383, 384, 385, 386, 387, 388, 389, 390, 391, 392, 393, 394, 395, 396, 397, 398, 399, 400, 401, 402, 403, 404, 405, 406, 407, 408, 409, 410, 411, 412, 413, 414, 415, 416, 417, 418, 419, 420, 421, 422, 423, 424, 425, 426, 427, 428, 429, 430, 431, 432, 433, 434, 435, 436, 437, 438, 439, 440, 441, 442, 443, 444, 445, 446, 447, 448, 449, 450, 451, 452, 453, 454, 455, 456, 457, 458, 459, 460, 461, 462, 463, 464, 465, 466, 467, 468, 469],
      "AcquisitionTime": ["161818.045000", "161819.535000", "161821.025000", "161822.515000", "161824.005000", "161825.495000", "161826.985000", "161828.475000", "161829.965000", "161831.455000", "161832.945000", "161834.435000", "161835.925000", "161837.415000", "161838.905000", "161840.395000", "161841.885000", "161843.375000", "161844.865000", "161846.355000", "161847.845000", "161849.335000", "161850.825000", "161852.315000", "161853.805000", "161855.295000", "161856.785000", "161858.275000", "161859.765000", "161901.255000", "161902.745000", "161904.235000", "161905.725000", "161907.215000", "161908.705000", "161910.195000", "161911.685000", "161913.175000", "161914.665000", "161916.155000", "161917.645000", "161919.135000", "161920.625000", "161922.115000", "161923.605000", "161925.095000", "161926.585000", "161928.075000", "161929.565000", "161931.055000", "161932.545000", "161934.035000", "161935.525000", "161937.015000", "161938.505000", "161939.995000", "161941.485000", "161942.975000", "161944.465000", "161945.955000", "161947.445000", "161948.935000", "161950.425000", "161951.915000", "161953.405000", "161954.895000", "161956.385000", "161957.875000", "161959.365000", "162000.855000", "162002.345000", "162003.835000", "162005.325000", "162006.815000", "162008.305000", "162009.795000", "162011.285000", "162012.775000", "162014.265000", "162015.755000", "162017.245000", "162018.735000", "162020.225000", "162021.715000", "162023.205000", "162024.695000", "162026.185000", "162027.675000", "162029.165000", "162030.655000", "162032.145000", "162033.635000", "162035.125000", "162036.615000", "162038.105000", "162039.595000", "162041.085000", "162042.575000", "162044.065000", "162045.555000", "162047.045000", "162048.535000", "162050.025000", "162051.515000", "162053.005000", "162054.495000", "162055.985000", "162057.475000", "162058.965000", "162100.455000", "162101.945000", "162103.435000", "162104.925000", "162106.415000", "162107.905000", "162109.395000", "162110.885000", "162112.375000", "162113.865000", "162115.355000", "162116.845000", "162118.335000", "162119.825000", "162121.315000", "162122.805000", "162124.295000", "162125.785000", "162127.275000", "162128.765000", "162130.255000", "162131.745000", "162133.235000", "162134.725000", "162136.215000", "162137.705000", "162139.195000", "162140.685000", "162142.175000", "162143.665000", "162145.155000", "162146.645000", "162148.135000", "162149.625000", "162151.115000", "162152.605000", "162154.095000", "162155.585000", "162157.075000", "162158.565000", "162200.055000", "162201.545000", "162203.035000", "162204.525000", "162206.015000", "162207.505000", "162208.995000", "162210.485000", "162211.975000", "162213.465000", "162214.955000", "162216.445000", "162217.935000", "162219.425000", "162220.915000", "162222.405000", "162223.895000", "162225.385000", "162226.875000", "162228.365000", "162229.855000", "162231.345000", "162232.835000", "162234.325000", "162235.815000", "162237.305000", "162238.795000", "162240.285000", "162241.775000", "162243.265000", "162244.755000", "162246.245000", "162247.735000", "162249.225000", "162250.715000", "162252.205000", "162253.695000", "162255.185000", "162256.675000", "162258.165000", "162259.655000", "162301.145000", "162302.635000", "162304.125000", "162305.615000", "162307.105000", "162308.595000", "162310.085000", "162311.575000", "162313.065000", "162314.555000", "162316.045000", "162317.535000", "162319.025000", "162320.515000", "162322.005000", "162323.495000", "162324.985000", "162326.475000", "162327.965000", "162329.455000", "162330.945000", "162332.435000", "162333.925000", "162335.415000", "162336.905000", "162338.395000", "162339.885000", "162341.375000", "162342.865000", "162344.355000", "162345.845000", "162347.335000", "162348.825000", "162350.315000", "162351.805000", "162353.295000", "162354.785000", "162356.275000", "162357.765000", "162359.255000", "162400.745000", "162402.235000", "162403.725000", "162405.215000", "162406.705000", "162408.195000", "162409.685000", "162411.175000", "162412.665000", "162414.155000", "162415.645000", "162417.135000", "162418.625000", "162420.115000", "162421.605000", "162423.095000", "162424.585000", "162426.075000", "162427.565000", "162429.055000", "162430.545000", "162432.035000", "162433.525000", "162435.015000", "162436.505000", "162437.995000", "162439.485000", "162440.975000", "162442.465000", "162443.955000", "162445.445000", "162446.935000", "162448.425000", "162449.915000", "162451.405000", "162452.895000", "162454.385000", "162455.875000", "162457.365000", "162458.855000", "162500.345000", "162501.835000", "162503.325000", "162504.815000", "162506.305000", "162507.795000", "162509.285000", "162510.775000", "162512.265000", "162513.755000", "162515.245000", "162516.735000", "162518.225000", "162519.715000", "162521.205000", "162522.695000", "162524.185000", "162525.675000", "162527.165000", "162528.655000", "162530.145000", "162531.635000", "162533.125000", "162534.615000", "162536.105000", "162537.595000", "162539.085000", "162540.575000", "162542.065000", "162543.555000", "162545.045000", "162546.535000", "162548.025000", "162549.515000", "162551.005000", "162552.495000", "162553.985000", "162555.475000", "162556.965000", "162558.455000", "162559.945000", "162601.435000", "162602.925000", "162604.415000", "162605.905000", "162607.395000", "162608.885000", "162610.375000", "162611.865000", "162613.355000", "162614.845000", "162616.335000", "162617.825000", "162619.315000", "162620.805000", "162622.295000", "162623.785000", "162625.275000", "162626.765000", "162628.255000", "162629.745000", "162631.235000", "162632.725000", "162634.215000", "162635.705000", "162637.195000", "162638.685000", "162640.175000", "162641.665000", "162643.155000", "162644.645000", "162646.135000", "162647.625000", "162649.115000", "162650.605000", "162652.095000", "162653.585000", "162655.075000", "162656.565000", "162658.055000", "162659.545000", "162701.035000", "162702.525000", "162704.015000", "162705.505000", "162706.995000", "162708.485000", "162709.975000", "162711.465000", "162712.955000", "162714.445000", "162715.935000", "162717.425000", "162718.915000", "162720.405000", "162721.895000", "162723.385000", "162724.875000", "162726.365000", "162727.855000", "162729.345000", "162730.835000", "162732.325000", "162733.815000", "162735.305000", "162736.795000", "162738.285000", "162739.775000", "162741.265000", "162742.755000", "162744.245000", "162745.735000", "162747.225000", "162748.715000", "162750.205000", "162751.695000", "162753.185000", "162754.675000", "162756.165000", "162757.655000", "162759.145000", "162800.635000", "162802.125000", "162803.615000", "162805.105000", "162806.595000", "162808.085000", "162809.575000", "162811.065000", "162812.555000", "162814.045000", "162815.535000", "162817.025000", "162818.515000", "162820.005000", "162821.495000", "162822.985000", "162824.475000", "162825.965000", "162827.455000", "162828.945000", "162830.435000", "162831.925000", "162833.415000", "162834.905000", "162836.395000", "162837.885000", "162839.375000", "162840.865000", "162842.355000", "162843.845000", "162845.335000", "162846.825000", "162848.315000", "162849.805000", "162851.295000", "162852.785000", "162854.275000", "162855.765000", "162857.255000", "162858.745000", "162900.235000", "162901.725000", "162903.215000", "162904.705000", "162906.195000", "162907.685000", "162909.175000", "162910.665000", "162912.155000", "162913.645000", "162915.135000", "162916.625000", "162918.115000", "162919.605000", "162921.095000", "162922.585000", "162924.075000", "162925.565000", "162927.055000", "162928.545000", "162930.035000", "162931.525000", "162933.015000", "162934.505000", "162935.995000", "162937.485000", "162938.975000", "162940.465000", "162941.955000", "162943.445000", "162944.935000", "162946.425000", "162947.915000", "162949.405000", "162950.895000", "162952.385000", "162953.875000", "162955.365000"],
      "ContentTime": ["161944.356000", "161944.360000", "161944.363000", "161944.366000", "161944.368000", "161944.371000", "161944.374000", "161944.377000", "161944.380000", "161944.383000", "161944.385000", "161944.393000", "161944.396000", "161944.399000", "161944.402000", "161944.404000", "161944.407000", "161944.410000", "161944.413000", "161944.416000", "161944.419000", "161944.421000", "161944.424000", "161944.427000", "161944.430000", "161944.440000", "161944.443000", "161944.446000", "161944.449000", "161944.457000", "161944.460000", "162004.321000", "162004.324000", "162004.327000", "162004.330000", "162004.332000", "162004.335000", "162004.338000", "162004.341000", "162004.344000", "162004.347000", "162004.350000", "162004.353000", "162004.356000", "162004.359000", "162004.361000", "162004.364000", "162004.367000", "162004.370000", "162004.373000", "162004.376000", "162024.322000", "162024.325000", "162024.328000", "162024.331000", "162024.334000", "162024.337000", "162024.339000", "162024.342000", "162024.345000", "162024.348000", "162024.351000", "162024.354000", "162024.356000", "162024.359000", "162024.362000", "162024.365000", "162024.368000", "162024.371000", "162024.374000", "162024.377000", "162024.379000", "162044.322000", "162044.325000", "162044.328000", "162044.331000", "162044.333000", "162044.336000", "162044.339000", "162044.342000", "162044.345000", "162044.348000", "162044.351000", "162044.354000", "162044.357000", "162044.360000", "162044.362000", "162044.365000", "162044.368000", "162044.371000", "162044.374000", "162044.377000", "162124.321000", "162124.324000", "162124.327000", "162124.330000", "162124.332000", "162124.335000", "162124.338000", "162124.341000", "162124.344000", "162124.347000", "162124.350000", "162124.353000", "162124.356000", "162124.358000", "162124.369000", "162124.371000", "162124.374000", "162124.377000", "162124.381000", "162124.383000", "162124.386000", "162124.389000", "162124.392000", "162124.395000", "162124.398000", "162124.401000", "162124.404000", "162124.407000", "162124.410000", "162124.413000", "162124.415000", "162124.418000", "162204.321000", "162204.324000", "162204.327000", "162204.330000", "162204.333000", "162204.335000", "162204.338000", "162204.341000", "162204.344000", "162204.347000", "162204.350000", "162204.353000", "162204.356000", "162204.358000", "162204.361000", "162204.364000", "162204.367000", "162204.370000", "162204.373000", "162204.376000", "162204.379000", "162204.381000", "162204.384000", "162204.387000", "162204.390000", "162204.393000", "162204.396000", "162244.322000", "162244.325000", "162244.328000", "162244.331000", "162244.334000", "162244.351000", "162244.354000", "162244.357000", "162244.360000", "162244.362000", "162244.365000", "162244.368000", "162244.371000", "162244.374000", "162244.377000", "162244.379000", "162244.382000", "162244.385000", "162244.388000", "162244.391000", "162244.394000", "162244.397000", "162244.399000", "162244.402000", "162244.405000", "162244.408000", "162244.411000", "162324.322000", "162324.325000", "162324.328000", "162324.331000", "162324.334000", "162324.337000", "162324.339000", "162324.342000", "162324.345000", "162324.348000", "162324.351000", "162324.354000", "162324.357000", "162324.359000", "162324.362000", "162324.365000", "162324.368000", "162324.371000", "162324.374000", "162324.377000", "162324.379000", "162324.382000", "162324.385000", "162324.388000", "162324.391000", "162324.394000", "162324.397000", "162404.321000", "162404.324000", "162404.327000", "162404.330000", "162404.333000", "162404.336000", "162404.338000", "162404.341000", "162404.344000", "162404.347000", "162404.350000", "162404.353000", "162404.356000", "162404.358000", "162404.361000", "162404.364000", "162404.367000", "162404.370000", "162404.373000", "162404.376000", "162404.379000", "162404.382000", "162404.384000", "162404.387000", "162404.390000", "162404.393000", "162404.396000", "162444.321000", "162444.324000", "162444.327000", "162444.330000", "162444.333000", "162444.335000", "162444.338000", "162444.341000", "162444.344000", "162444.347000", "162444.350000", "162444.353000", "162444.356000", "162444.358000", "162444.361000", "162444.364000", "162444.367000", "162444.370000", "162444.373000", "162444.376000", "162444.379000", "162444.382000", "162444.384000", "162444.387000", "162444.390000", "162444.399000", "162444.402000", "162524.322000", "162524.325000", "162524.328000", "162524.331000", "162524.334000", "162524.339000", "162524.342000", "162524.345000", "162524.348000", "162524.351000", "162524.354000", "162524.357000", "162524.359000", "162524.362000", "162524.365000", "162524.368000", "162524.371000", "162524.374000", "162524.377000", "162524.380000", "162524.383000", "162524.386000", "162524.388000", "162524.391000", "162524.394000", "162524.397000", "162604.321000", "162604.324000", "162604.327000", "162604.330000", "162604.338000", "162604.341000", "162604.343000", "162604.346000", "162604.349000", "162604.352000", "162604.355000", "162604.358000", "162604.361000", "162604.364000", "162604.367000", "162604.370000", "162604.373000", "162604.375000", "162604.378000", "162604.381000", "162604.384000", "162604.387000", "162604.390000", "162604.393000", "162604.396000", "162604.398000", "162604.401000", "162644.321000", "162644.324000", "162644.327000", "162644.330000", "162644.333000", "162644.336000", "162644.339000", "162644.341000", "162644.344000", "162644.347000", "162644.350000", "162644.353000", "162644.356000", "162644.358000", "162644.361000", "162644.364000", "162644.367000", "162644.370000", "162644.373000", "162644.376000", "162644.379000", "162644.382000", "162644.385000", "162644.387000", "162644.390000", "162644.393000", "162644.396000", "162724.332000", "162724.335000", "162724.338000", "162724.341000", "162724.343000", "162724.346000", "162724.349000", "162724.352000", "162724.355000", "162724.358000", "162724.361000", "162724.364000", "162724.366000", "162724.369000", "162724.372000", "162724.375000", "162724.378000", "162724.381000", "162724.384000", "162724.387000", "162724.390000", "162724.392000", "162724.395000", "162724.398000", "162724.401000", "162724.404000", "162724.407000", "162744.322000", "162744.325000", "162744.328000", "162744.331000", "162744.334000", "162744.337000", "162744.340000", "162744.342000", "162744.345000", "162744.348000", "162744.351000", "162744.354000", "162744.357000", "162824.321000", "162824.324000", "162824.327000", "162824.330000", "162824.333000", "162824.335000", "162824.338000", "162824.341000", "162824.344000", "162824.347000", "162824.350000", "162824.353000", "162824.356000", "162824.359000", "162824.361000", "162824.364000", "162824.367000", "162824.370000", "162824.373000", "162824.376000", "162824.379000", "162824.381000", "162824.384000", "162824.387000", "162824.390000", "162824.393000", "162824.396000", "162904.321000", "162904.324000", "162904.327000", "162904.330000", "162904.333000", "162904.336000", "162904.339000", "162904.341000", "162904.344000", "162904.347000", "162904.350000", "162904.353000", "162904.356000", "162904.359000", "162904.362000", "162904.364000", "162904.367000", "162904.370000", "162904.373000", "162904.376000", "162904.379000", "162904.382000", "162904.385000", "162904.387000", "162904.390000", "162904.393000", "162904.396000", "162944.322000", "162944.325000", "162944.328000", "162944.331000", "162944.334000", "162944.337000", "162944.340000", "162944.342000", "162944.345000", "162944.348000", "162944.351000", "162944.354000", "162944.357000", "162944.360000", "162944.362000", "162944.365000", "162944.368000", "162944.371000", "162944.374000", "162944.377000", "162944.379000", "162944.382000", "162944.385000", "162944.388000", "162944.395000", "162944.398000", "162944.401000", "162958.504000", "162958.508000", "162958.511000", "162958.514000", "162958.516000", "162958.519000", "162958.522000", "162958.525000", "162958.528000"],
