{
  "AcquisitionMatrixPE": 104,
  "AcquisitionNumber": 1,
  "AcquisitionTime": "15:50:41.610000",
  "BandwidthPerPixelPhaseEncode": 17.17,
  "BaseResolution": 104,
  "BodyPartExamined": "BRAIN",
  "CoilString": "HC1-7;NC1_2",
  "ConsistencyInfo": "N4_VE11C_LATEST_20160120",
  "ConversionSoftware": "dcm2niix",
  "ConversionSoftwareVersion": "v1.0.20190902",
  "DerivedVendorReportedEchoSpacing": 0.000560011,
  "DeviceSerialNumber": "167006",
  "DwellTime": 2.1e-06,
  "EchoTime": 0.037,
  "EchoTrainLength": 104,
  "EffectiveEchoSpacing": 0.000560011,
  "FlipAngle": 52,
  "ImageComments": "Unaliased_MB4_PE3_LB",
  "ImageOrientationPatientDICOM": [0.998843, -0.0471041, 0.00971213, 0.0474536, 0.932356, -0.358414],
  "ImageType": [
    "ORIGINAL",
    "PRIMARY",
    "M",
    "MB",
    "ND",
    "MOSAIC"
],
  "ImagingFrequency": 123.259,
  "InPlanePhaseEncodingDirectionDICOM": "COL",
  "InstitutionAddress": "Chemin_Queen-Mary_4565_Montreal_District_CA_H3W_1W5",
  "InstitutionName": "IUGM",
  "InstitutionalDepartmentName": "Department",
  "MRAcquisitionType": "2D",
  "MagneticFieldStrength": 3,
  "Manufacturer": "Siemens",
  "ManufacturersModelName": "Prisma_fit",
  "Modality": "MR",
  "MultibandAccelerationFactor": 4,
  "PartialFourier": 1,
  "PatientPosition": "HFS",
  "PercentPhaseFOV": 100,
  "PhaseEncodingDirection": "j",
  "PhaseEncodingSteps": 104,
  "PhaseResolution": 1,
  "PixelBandwidth": 2290,
  "ProcedureStepDescription": "games_shinobi",
  "ProtocolName": "func_task-shinobi_run-1",
  "PulseSequenceDetails": "%CustomerSeq%_cmrr_mbep2d_bold",
  "ReceiveCoilActiveElements": "HC1-7;NC1,2",
  "ReceiveCoilName": "HeadNeck_64",
  "ReconMatrixPE": 104,
  "RepetitionTime": 1.49,
  "SAR": 0.0295296,
  "ScanOptions": "FS",
  "ScanningSequence": "EP",
  "SequenceName": "epfid2d1_104",
  "SequenceVariant": "SK_SS",
  "SeriesDescription": "func_task-shinobi_run-1",
  "SeriesNumber": 9,
  "ShimSetting": [634, -7254, -8849, 599, 12, -252, -31, -21],
  "SliceThickness": 2,
  "SliceTiming": [0, 0.785, 0.1, 0.8825, 0.1975, 0.98, 0.295, 1.08, 0.3925, 1.1775, 0.49, 1.275, 0.59, 1.3725, 0.6875, 0, 0.785, 0.1, 0.8825, 0.1975, 0.98, 0.295, 1.08, 0.3925, 1.1775, 0.49, 1.275, 0.59, 1.3725, 0.6875, 0, 0.785, 0.1, 0.8825, 0.1975, 0.98, 0.295, 1.08, 0.3925, 1.1775, 0.49, 1.275, 0.59, 1.3725, 0.6875, 0, 0.785, 0.1, 0.8825, 0.1975, 0.98, 0.295, 1.08, 0.3925, 1.1775, 0.49, 1.275, 0.59, 1.3725, 0.6875],
  "SoftwareVersions": "syngo_MR_E11",
  "SpacingBetweenSlices": 2,
  "StationName": "MRC35049",
  "TaskName": "shinobi",
  "TotalReadoutTime": 0.0576811,
  "TxRefAmp": 217.133,
  "WipMemBlock": "e8a5314e-20e7-4ef0-a779-68e985c6fd34||Sequence: R016 ve11c/master r/e634e98; Dec 19 2017 11:00:25 by eja",
  "dcmmeta_affine": [
    [-1.9976855516433716, 0.094907246530056, -0.015655143186450005, 101.58814239501953],
    [0.09420810639858246, 1.864712119102478, -0.716919481754303, -67.80252838134766],
    [0.019424259662628174, 0.7168272733688354, 1.8670246601104736, -71.42242431640625],
    [0.0, 0.0, 0.0, 1.0]
],
  "dcmmeta_reorient_transform": [
    [0.0, -1.0, 0.0, 103.0],
    [1.0, 0.0, 0.0, 0.0],
    [0.0, 0.0, 1.0, 0.0],
    [0.0, 0.0, 0.0, 1.0]
],
  "dcmmeta_shape": [104, 104, 60, 530],
  "dcmmeta_slice_dim": 2,
  "dcmmeta_version": 0.6,
  "global": {
    "const": {
      "AcquisitionMatrix": [104, 0, 0, 104],
      "AngioFlag": "N",
      "BitsAllocated": 16,
      "BitsStored": 16,
      "BodyPartExamined": "BRAIN",
      "Columns": 832,
      "EchoNumbers": 1,
      "EchoTime": 37.0,
      "EchoTrainLength": 104,
      "FlipAngle": 52.0,
      "HighBit": 15,
      "ImageOrientationPatient": [0.9988427717146, -0.047104054233, 0.00971212995742, 0.04745362488429, 0.93235606137859, -0.3584136273859],
      "ImagePositionPatient": [-873.06736357649, -768.7262832569, 256.2654741076],
      "ImageType": [
        "ORIGINAL",
        "PRIMARY",
        "M",
        "MB",
        "ND",
        "MOSAIC"
],
      "ImagedNucleus": "1H",
      "ImagingFrequency": 123.258963,
      "InPlanePhaseEncodingDirection": "COL",
      "MRAcquisitionType": "2D",
      "MagneticFieldStrength": 3.0,
      "Manufacturer": "SIEMENS",
      "ManufacturerModelName": "Prisma_fit",
      "Modality": "MR",
      "NumberOfAverages": 1.0,
      "NumberOfPhaseEncodingSteps": 104,
      "PercentPhaseFieldOfView": 100.0,
      "PercentSampling": 100.0,
      "PerformedProcedureStepStartTime": "153244.417000",
      "PhotometricInterpretation": "MONOCHROME2",
      "PixelBandwidth": 2290.0,
      "PixelRepresentation": 0,
      "PixelSpacing": [2.0, 2.0],
      "ProtocolName": "func_task-shinobi_run-1",
      "RepetitionTime": 1490.0,
      "Rows": 832,
      "SAR": 0.02952958486645,
      "SamplesPerPixel": 1,
      "ScanOptions": "FS",
      "ScanningSequence": "EP",
      "SequenceName": "epfid2d1_104",
      "SequenceVariant": [
        "SK",
        "SS"
],
      "SeriesDescription": "func_task-shinobi_run-1",
      "SeriesNumber": 9,
      "SeriesTime": "155145.359000",
      "SliceLocation": -43.164428277774,
      "SliceThickness": 2.0,
      "SmallestImagePixelValue": 0,
      "SoftwareVersions": "syngo MR E11",
      "SpacingBetweenSlices": 1.9999999485426,
      "SpecificCharacterSet": "ISO_IR 100",
      "StudyID": "1",
      "StudyTime": "153244.342000",
      "TransmitCoilName": "Body",
      "VariableFlipAngleFlag": "N",
      "WindowCenterWidthExplanation": "Algo1",
      "dBdt": 0.0},
    "slices": {}
  },
  "time": {
    "samples": {
      "AcquisitionNumber": [1, 2, 3, 4, 5, 6, 7, 8, 9, 10, 11, 12, 13, 14, 15, 16, 17, 18, 19, 20, 21, 22, 23, 24, 25, 26, 27, 28, 29, 30, 31, 32, 33, 34, 35, 36, 37, 38, 39, 40, 41, 42, 43, 44, 45, 46, 47, 48, 49, 50, 51, 52, 53, 54, 55, 56, 57, 58, 59, 60, 61, 62, 63, 64, 65, 66, 67, 68, 69, 70, 71, 72, 73, 74, 75, 76, 77, 78, 79, 80, 81, 82, 83, 84, 85, 86, 87, 88, 89, 90, 91, 92, 93, 94, 95, 96, 97, 98, 99, 100, 101, 102, 103, 104, 105, 106, 107, 108, 109, 110, 111, 112, 113, 114, 115, 116, 117, 118, 119, 120, 121, 122, 123, 124, 125, 126, 127, 128, 129, 130, 131, 132, 133, 134, 135, 136, 137, 138, 139, 140, 141, 142, 143, 144, 145, 146, 147, 148, 149, 150, 151, 152, 153, 154, 155, 156, 157, 158, 159, 160, 161, 162, 163, 164, 165, 166, 167, 168, 169, 170, 171, 172, 173, 174, 175, 176, 177, 178, 179, 180, 181, 182, 183, 184, 185, 186, 187, 188, 189, 190, 191, 192, 193, 194, 195, 196, 197, 198, 199, 200, 201, 202, 203, 204, 205, 206, 207, 208, 209, 210, 211, 212, 213, 214, 215, 216, 217, 218, 219, 220, 221, 222, 223, 224, 225, 226, 227, 228, 229, 230, 231, 232, 233, 234, 235, 236, 237, 238, 239, 240, 241, 242, 243, 244, 245, 246, 247, 248, 249, 250, 251, 252, 253, 254, 255, 256, 257, 258, 259, 260, 261, 262, 263, 264, 265, 266, 267, 268, 269, 270, 271, 272, 273, 274, 275, 276, 277, 278, 279, 280, 281, 282, 283, 284, 285, 286, 287, 288, 289, 290, 291, 292, 293, 294, 295, 296, 297, 298, 299, 300, 301, 302, 303, 304, 305, 306, 307, 308, 309, 310, 311, 312, 313, 314, 315, 316, 317, 318, 319, 320, 321, 322, 323, 324, 325, 326, 327, 328, 329, 330, 331, 332, 333, 334, 335, 336, 337, 338, 339, 340, 341, 342, 343, 344, 345, 346, 347, 348, 349, 350, 351, 352, 353, 354, 355, 356, 357, 358, 359, 360, 361, 362, 363, 364, 365, 366, 367, 368, 369, 370, 371, 372, 373, 374, 375, 376, 377, 378, 379, 380, 381, 382, 383, 384, 385, 386, 387, 388, 389, 390, 391, 392, 393, 394, 395, 396, 397, 398, 399, 400, 401, 402, 403, 404, 405, 406, 407, 408, 409, 410, 411, 412, 413, 414, 415, 416, 417, 418, 419, 420, 421, 422, 423, 424, 425, 426, 427, 428, 429, 430, 431, 432, 433, 434, 435, 436, 437, 438, 439, 440, 441, 442, 443, 444, 445, 446, 447, 448, 449, 450, 451, 452, 453, 454, 455, 456, 457, 458, 459, 460, 461, 462, 463, 464, 465, 466, 467, 468, 469, 470, 471, 472, 473, 474, 475, 476, 477, 478, 479, 480, 481, 482, 483, 484, 485, 486, 487, 488, 489, 490, 491, 492, 493, 494, 495, 496, 497, 498, 499, 500, 501, 502, 503, 504, 505, 506, 507, 508, 509, 510, 511, 512, 513, 514, 515, 516, 517, 518, 519, 520, 521, 522, 523, 524, 525, 526, 527, 528, 529, 530],
      "AcquisitionTime": ["155041.610000", "155043.100000", "155044.590000", "155046.080000", "155047.570000", "155049.060000", "155050.550000", "155052.040000", "155053.530000", "155055.020000", "155056.510000", "155058.000000", "155059.490000", "155100.980000", "155102.470000", "155103.960000", "155105.450000", "155106.940000", "155108.430000", "155109.920000", "155111.410000", "155112.900000", "155114.390000", "155115.880000", "155117.370000", "155118.860000", "155120.350000", "155121.840000", "155123.330000", "155124.820000", "155126.310000", "155127.800000", "155129.290000", "155130.780000", "155132.270000", "155133.760000", "155135.250000", "155136.740000", "155138.230000", "155139.720000", "155141.210000", "155142.700000", "155144.190000", "155145.680000", "155147.170000", "155148.660000", "155150.150000", "155151.640000", "155153.130000", "155154.620000", "155156.110000", "155157.600000", "155159.090000", "155200.580000", "155202.070000", "155203.560000", "155205.050000", "155206.540000", "155208.030000", "155209.520000", "155211.010000", "155212.500000", "155213.990000", "155215.480000", "155216.970000", "155218.460000", "155219.950000", "155221.440000", "155222.930000", "155224.420000", "155225.910000", "155227.400000", "155228.890000", "155230.380000", "155231.870000", "155233.360000", "155234.850000", "155236.340000", "155237.830000", "155239.320000", "155240.810000", "155242.300000", "155243.790000", "155245.280000", "155246.770000", "155248.260000", "155249.750000", "155251.240000", "155252.730000", "155254.220000", "155255.710000", "155257.200000", "155258.690000", "155300.180000", "155301.670000", "155303.160000", "155304.650000", "155306.140000", "155307.630000", "155309.120000", "155310.610000", "155312.100000", "155313.590000", "155315.080000", "155316.570000", "155318.060000", "155319.550000", "155321.040000", "155322.530000", "155324.020000", "155325.510000", "155327.000000", "155328.490000", "155329.980000", "155331.470000", "155332.960000", "155334.450000", "155335.940000", "155337.430000", "155338.920000", "155340.410000", "155341.900000", "155343.390000", "155344.880000", "155346.370000", "155347.860000", "155349.350000", "155350.840000", "155352.330000", "155353.820000", "155355.310000", "155356.800000", "155358.290000", "155359.780000", "155401.270000", "155402.760000", "155404.250000", "155405.740000", "155407.230000", "155408.720000", "155410.210000", "155411.700000", "155413.190000", "155414.680000", "155416.170000", "155417.660000", "155419.150000", "155420.640000", "155422.130000", "155423.620000", "155425.110000", "155426.600000", "155428.090000", "155429.580000", "155431.070000", "155432.560000", "155434.050000", "155435.540000", "155437.030000", "155438.520000", "155440.010000", "155441.500000", "155442.990000", "155444.480000", "155445.970000", "155447.460000", "155448.950000", "155450.440000", "155451.930000", "155453.420000", "155454.910000", "155456.400000", "155457.890000", "155459.380000", "155500.870000", "155502.360000", "155503.850000", "155505.340000", "155506.830000", "155508.320000", "155509.810000", "155511.300000", "155512.790000", "155514.280000", "155515.770000", "155517.260000", "155518.750000", "155520.240000", "155521.730000", "155523.220000", "155524.710000", "155526.200000", "155527.690000", "155529.180000", "155530.670000", "155532.160000", "155533.650000", "155535.140000", "155536.630000", "155538.120000", "155539.610000", "155541.100000", "155542.590000", "155544.080000", "155545.570000", "155547.060000", "155548.550000", "155550.040000", "155551.530000", "155553.020000", "155554.510000", "155556.000000", "155557.490000", "155558.980000", "155600.470000", "155601.960000", "155603.450000", "155604.940000", "155606.430000", "155607.920000", "155609.410000", "155610.900000", "155612.390000", "155613.880000", "155615.370000", "155616.860000", "155618.350000", "155619.840000", "155621.330000", "155622.820000", "155624.310000", "155625.800000", "155627.290000", "155628.780000", "155630.270000", "155631.760000", "155633.250000", "155634.740000", "155636.230000", "155637.720000", "155639.210000", "155640.700000", "155642.190000", "155643.680000", "155645.170000", "155646.660000", "155648.150000", "155649.640000", "155651.130000", "155652.620000", "155654.110000", "155655.600000", "155657.090000", "155658.580000", "155700.070000", "155701.560000", "155703.050000", "155704.540000", "155706.030000", "155707.520000", "155709.010000", "155710.500000", "155711.990000", "155713.480000", "155714.970000", "155716.460000", "155717.950000", "155719.440000", "155720.930000", "155722.420000", "155723.910000", "155725.400000", "155726.890000", "155728.380000", "155729.870000", "155731.360000", "155732.850000", "155734.340000", "155735.830000", "155737.320000", "155738.810000", "155740.300000", "155741.790000", "155743.280000", "155744.770000", "155746.260000", "155747.750000", "155749.240000", "155750.730000", "155752.220000", "155753.710000", "155755.200000", "155756.690000", "155758.180000", "155759.670000", "155801.160000", "155802.650000", "155804.140000", "155805.630000", "155807.120000", "155808.610000", "155810.100000", "155811.590000", "155813.080000", "155814.570000", "155816.060000", "155817.550000", "155819.040000", "155820.530000", "155822.020000", "155823.510000", "155825.000000", "155826.490000", "155827.980000", "155829.470000", "155830.960000", "155832.450000", "155833.940000", "155835.430000", "155836.920000", "155838.410000", "155839.900000", "155841.390000", "155842.880000", "155844.370000", "155845.860000", "155847.350000", "155848.840000", "155850.330000", "155851.820000", "155853.310000", "155854.800000", "155856.290000", "155857.780000", "155859.270000", "155900.760000", "155902.250000", "155903.740000", "155905.230000", "155906.720000", "155908.210000", "155909.700000", "155911.190000", "155912.680000", "155914.170000", "155915.660000", "155917.150000", "155918.640000", "155920.130000", "155921.620000", "155923.110000", "155924.600000", "155926.090000", "155927.580000", "155929.070000", "155930.560000", "155932.050000", "155933.540000", "155935.030000", "155936.520000", "155938.010000", "155939.500000", "155940.990000", "155942.480000", "155943.970000", "155945.460000", "155946.950000", "155948.440000", "155949.930000", "155951.420000", "155952.910000", "155954.400000", "155955.890000", "155957.380000", "155958.870000", "160000.360000", "160001.850000", "160003.340000", "160004.830000", "160006.320000", "160007.810000", "160009.300000", "160010.790000", "160012.280000", "160013.770000", "160015.260000", "160016.750000", "160018.240000", "160019.730000", "160021.220000", "160022.710000", "160024.200000", "160025.690000", "160027.180000", "160028.670000", "160030.160000", "160031.650000", "160033.140000", "160034.630000", "160036.120000", "160037.610000", "160039.100000", "160040.590000", "160042.080000", "160043.570000", "160045.060000", "160046.550000", "160048.040000", "160049.530000", "160051.020000", "160052.510000", "160054.000000", "160055.490000", "160056.980000", "160058.470000", "160059.960000", "160101.450000", "160102.940000", "160104.430000", "160105.920000", "160107.410000", "160108.900000", "160110.390000", "160111.880000", "160113.370000", "160114.860000", "160116.350000", "160117.840000", "160119.330000", "160120.820000", "160122.310000", "160123.800000", "160125.290000", "160126.780000", "160128.270000", "160129.760000", "160131.250000", "160132.740000", "160134.230000", "160135.720000", "160137.210000", "160138.700000", "160140.190000", "160141.680000", "160143.170000", "160144.660000", "160146.150000", "160147.640000", "160149.130000", "160150.620000", "160152.110000", "160153.600000", "160155.090000", "160156.580000", "160158.070000", "160159.560000", "160201.050000", "160202.540000", "160204.030000", "160205.520000", "160207.010000", "160208.500000", "160209.990000", "160211.480000", "160212.970000", "160214.460000", "160215.950000", "160217.440000", "160218.930000", "160220.420000", "160221.910000", "160223.400000", "160224.890000", "160226.380000", "160227.870000", "160229.360000", "160230.850000", "160232.340000", "160233.830000", "160235.320000", "160236.810000", "160238.300000", "160239.790000", "160241.280000", "160242.770000", "160244.260000", "160245.750000", "160247.240000", "160248.730000", "160250.220000", "160251.710000", "160253.200000", "160254.690000", "160256.180000", "160257.670000", "160259.160000", "160300.650000", "160302.140000", "160303.630000", "160305.120000", "160306.610000", "160308.100000", "160309.590000", "160311.080000", "160312.570000", "160314.060000", "160315.550000", "160317.040000", "160318.530000", "160320.020000", "160321.510000", "160323.000000", "160324.490000", "160325.980000", "160327.470000", "160328.960000", "160330.450000", "160331.940000", "160333.430000", "160334.920000", "160336.410000", "160337.900000", "160339.390000", "160340.880000", "160342.370000", "160343.860000", "160345.350000", "160346.840000", "160348.330000", "160349.820000"],
      "ContentTime": ["155145.362000", "155145.365000", "155145.368000", "155145.371000", "155145.374000", "155145.377000", "155205.323000", "155205.326000", "155205.328000", "155205.339000", "155205.342000", "155205.358000", "155205.361000", "155205.364000", "155205.367000", "155205.370000", "155205.373000", "155205.375000", "155205.378000", "155205.381000", "155205.384000", "155205.387000", "155205.390000", "155205.393000", "155205.396000", "155205.398000", "155245.324000", "155245.327000", "155245.330000", "155245.333000", "155245.336000", "155245.338000", "155245.341000", "155245.344000", "155245.347000", "155245.350000", "155245.352000", "155245.355000", "155245.360000", "155245.363000", "155245.365000", "155245.368000", "155245.371000", "155245.374000", "155245.377000", "155245.380000", "155245.383000", "155245.385000", "155245.388000", "155245.391000", "155245.394000", "155245.397000", "155245.400000", "155245.403000", "155245.405000", "155245.408000", "155245.411000", "155245.414000", "155245.417000", "155245.420000", "155245.423000", "155245.425000", "155245.428000", "155245.433000", "155245.436000", "155245.439000", "155305.323000", "155305.326000", "155305.329000", "155305.332000", "155305.334000", "155305.337000", "155305.340000", "155305.343000", "155305.346000", "155305.349000", "155305.352000", "155305.354000", "155305.357000", "155305.360000", "155305.363000", "155305.366000", "155305.369000", "155305.371000", "155305.374000", "155305.377000", "155325.323000", "155325.326000", "155325.329000", "155325.331000", "155325.334000", "155325.337000", "155325.340000", "155325.343000", "155325.346000", "155325.349000", "155325.351000", "155325.354000", "155325.357000", "155325.360000", "155325.363000", "155325.366000", "155325.368000", "155325.371000", "155325.374000", "155325.377000", "155405.323000", "155405.326000", "155405.329000", "155405.332000", "155405.334000", "155405.337000", "155405.340000", "155405.343000", "155405.346000", "155405.349000", "155405.369000", "155405.372000", "155405.375000", "155405.378000", "155405.381000", "155405.383000", "155405.386000", "155405.389000", "155405.392000", "155405.395000", "155405.397000", "155405.400000", "155405.403000", "155405.406000", "155405.409000", "155405.412000", "155405.415000", "155405.418000", "155405.420000", "155405.423000", "155445.324000", "155445.327000", "155445.330000", "155445.333000", "155445.335000", "155445.338000", "155445.341000", "155445.344000", "155445.347000", "155445.350000", "155445.353000", "155445.355000", "155445.358000", "155445.361000", "155445.364000", "155445.367000", "155445.370000", "155445.372000", "155445.375000", "155445.378000", "155445.381000", "155445.384000", "155445.387000", "155445.390000", "155445.393000", "155445.395000", "155445.398000", "155525.323000", "155525.326000", "155525.329000", "155525.332000", "155525.335000", "155525.337000", "155525.340000", "155525.343000", "155525.346000", "155525.349000", "155525.352000", "155525.354000", "155525.357000", "155525.365000", "155525.368000", "155525.370000", "155525.373000", "155525.376000", "155525.379000", "155525.382000", "155525.385000", "155525.388000", "155525.390000", "155525.393000", "155525.396000", "155525.399000", "155525.402000", "155605.323000", "155605.326000", "155605.329000", "155605.332000", "155605.335000", "155605.338000", "155605.340000", "155605.343000", "155605.346000", "155605.349000", "155605.352000", "155605.355000", "155605.358000", "155605.362000", "155605.365000", "155605.367000", "155605.370000", "155605.373000", "155605.388000", "155605.390000", "155605.393000", "155605.396000", "155605.399000", "155605.402000", "155605.405000", "155605.407000", "155645.323000", "155645.326000", "155645.329000", "155645.332000", "155645.335000", "155645.337000", "155645.340000", "155645.343000", "155645.346000", "155645.349000", "155645.352000", "155645.355000", "155645.357000", "155645.360000", "155645.363000", "155645.366000", "155645.369000", "155645.372000", "155645.375000", "155645.378000", "155645.380000", "155645.383000", "155645.386000", "155645.389000", "155645.392000", "155645.394000", "155645.397000", "155725.324000", "155725.327000", "155725.330000", "155725.333000", "155725.336000", "155725.339000", "155725.341000", "155725.344000", "155725.347000", "155725.350000", "155725.353000", "155725.356000", "155725.359000", "155725.361000", "155725.364000", "155725.367000", "155725.370000", "155725.373000", "155725.376000", "155725.379000", "155725.382000", "155725.385000", "155725.388000", "155725.390000", "155725.393000", "155725.396000", "155725.399000", "155745.323000", "155745.326000", "155745.329000", "155745.332000", "155745.335000", "155745.337000", "155745.340000", "155745.343000", "155745.346000", "155745.349000", "155745.352000", "155745.354000", "155745.357000", "155745.360000", "155825.323000", "155825.326000", "155825.329000", "155825.332000", "155825.335000", "155825.337000", "155825.340000", "155825.343000", "155825.346000", "155825.349000", "155825.352000", "155825.354000", "155825.357000", "155825.360000", "155825.363000", "155825.366000", "155825.369000", "155825.372000", "155825.375000", "155825.377000", "155825.380000", "155825.383000", "155825.386000", "155825.389000", "155825.392000", "155825.394000", "155905.323000", "155905.326000", "155905.329000", "155905.332000", "155905.335000", "155905.338000", "155905.340000", "155905.343000", "155905.346000", "155905.349000", "155905.352000", "155905.355000", "155905.357000", "155905.360000", "155905.363000", "155905.366000", "155905.369000", "155905.372000", "155905.374000", "155905.377000", "155905.380000", "155905.383000", "155905.386000", "155905.389000", "155905.392000", "155905.394000", "155905.397000", "155945.324000", "155945.327000", "155945.330000", "155945.333000", "155945.344000", "155945.347000", "155945.349000", "155945.352000", "155945.355000", "155945.358000", "155945.361000", "155945.364000", "155945.367000", "155945.370000", "155945.373000", "155945.376000", "155945.378000", "155945.381000", "155945.384000", "155945.387000", "155945.390000", "155945.393000", "155945.395000", "155945.398000", "155945.401000", "155945.404000", "155945.407000", "160025.323000", "160025.326000", "160025.329000", "160025.332000", "160025.335000", "160025.337000", "160025.340000", "160025.343000", "160025.346000", "160025.349000", "160025.352000", "160025.355000", "160025.358000", "160025.360000", "160025.363000", "160025.366000", "160025.369000", "160025.372000", "160025.375000", "160025.378000", "160025.380000", "160025.383000", "160025.386000", "160025.389000", "160025.392000", "160025.395000", "160025.398000", "160105.332000", "160105.336000", "160105.339000", "160105.342000", "160105.345000", "160105.348000", "160105.351000", "160105.354000", "160105.357000", "160105.360000", "160105.363000", "160105.365000", "160105.368000", "160105.371000", "160105.374000", "160105.377000", "160105.380000", "160105.383000", "160105.386000", "160105.389000", "160105.391000", "160105.394000", "160105.397000", "160105.400000", "160105.403000", "160105.406000", "160105.408000", "160145.324000", "160145.327000", "160145.330000", "160145.333000", "160145.336000", "160145.339000", "160145.342000", "160145.344000", "160145.347000", "160145.350000", "160145.353000", "160145.356000", "160145.359000", "160145.362000", "160145.365000", "160145.367000", "160145.370000", "160145.373000", "160145.376000", "160145.379000", "160145.382000", "160145.384000", "160145.387000", "160145.390000", "160145.393000", "160145.396000", "160145.399000", "160225.323000", "160225.326000", "160225.329000", "160225.332000", "160225.335000", "160225.338000", "160225.341000", "160225.344000", "160225.346000", "160225.349000", "160225.352000", "160225.355000", "160225.358000", "160225.361000", "160225.364000", "160225.367000", "160225.370000", "160225.373000", "160225.376000", "160225.379000", "160225.381000", "160225.384000", "160225.387000", "160225.390000", "160225.393000", "160225.396000", "160305.323000", "160305.326000", "160305.329000", "160305.332000", "160305.335000", "160305.338000", "160305.340000", "160305.343000", "160305.346000", "160305.349000", "160305.352000", "160305.355000", "160305.358000", "160305.361000", "160305.363000", "160305.366000", "160305.370000", "160305.373000", "160305.376000", "160305.379000", "160305.382000", "160305.385000", "160305.388000", "160305.391000", "160305.393000", "160305.396000", "160305.399000", "160345.323000", "160345.326000", "160345.330000", "160345.332000", "160345.335000", "160345.338000", "160345.341000", "160345.344000", "160345.347000", "160345.350000", "160345.353000", "160345.356000", "160345.359000", "160345.361000", "160345.364000", "160345.367000", "160345.370000", "160345.373000", "160345.376000", "160345.379000", "160345.381000", "160345.384000", "160345.387000", "160345.390000", "160345.393000", "160345.396000", "160345.398000", "160352.177000", "160352.181000", "160352.184000", "160352.186000", "160352.189000"],
