{
  "AcquisitionMatrixPE": 104,
  "AcquisitionNumber": 1,
  "AcquisitionTime": "16:30:31.340000",
  "BandwidthPerPixelPhaseEncode": 17.17,
  "BaseResolution": 104,
  "BodyPartExamined": "BRAIN",
  "CoilString": "HC1-7;NC1_2",
  "ConsistencyInfo": "N4_VE11C_LATEST_20160120",
  "ConversionSoftware": "dcm2niix",
  "ConversionSoftwareVersion": "v1.0.20190902",
  "DerivedVendorReportedEchoSpacing": 0.000560011,
  "DeviceSerialNumber": "167006",
  "DwellTime": 2.1e-06,
  "EchoTime": 0.037,
  "EchoTrainLength": 104,
  "EffectiveEchoSpacing": 0.000560011,
  "FlipAngle": 52,
  "ImageComments": "Unaliased_MB4_PE3_LB",
  "ImageOrientationPatientDICOM": [0.998843, -0.0471041, 0.00971213, 0.0474536, 0.932356, -0.358414],
  "ImageType": [
    "ORIGINAL",
    "PRIMARY",
    "M",
    "MB",
    "ND",
    "MOSAIC"
],
  "ImagingFrequency": 123.259,
  "InPlanePhaseEncodingDirectionDICOM": "COL",
  "InstitutionAddress": "Chemin_Queen-Mary_4565_Montreal_District_CA_H3W_1W5",
  "InstitutionName": "IUGM",
  "InstitutionalDepartmentName": "Department",
  "MRAcquisitionType": "2D",
  "MagneticFieldStrength": 3,
  "Manufacturer": "Siemens",
  "ManufacturersModelName": "Prisma_fit",
  "Modality": "MR",
  "MultibandAccelerationFactor": 4,
  "PartialFourier": 1,
  "PatientPosition": "HFS",
  "PercentPhaseFOV": 100,
  "PhaseEncodingDirection": "j",
  "PhaseEncodingSteps": 104,
  "PhaseResolution": 1,
  "PixelBandwidth": 2290,
  "ProcedureStepDescription": "games_shinobi",
  "ProtocolName": "func_task-shinobi_run-4",
  "PulseSequenceDetails": "%CustomerSeq%_cmrr_mbep2d_bold",
  "ReceiveCoilActiveElements": "HC1-7;NC1,2",
  "ReceiveCoilName": "HeadNeck_64",
  "ReconMatrixPE": 104,
  "RepetitionTime": 1.49,
  "SAR": 0.0295296,
  "ScanOptions": "FS",
  "ScanningSequence": "EP",
  "SequenceName": "epfid2d1_104",
  "SequenceVariant": "SK_SS",
  "SeriesDescription": "func_task-shinobi_run-4",
  "SeriesNumber": 15,
  "ShimSetting": [634, -7254, -8849, 599, 12, -252, -31, -21],
  "SliceThickness": 2,
  "SliceTiming": [0, 0.785, 0.0975, 0.8825, 0.1975, 0.98, 0.295, 1.0775, 0.3925, 1.175, 0.49, 1.275, 0.5875, 1.3725, 0.685, 0, 0.785, 0.0975, 0.8825, 0.1975, 0.98, 0.295, 1.0775, 0.3925, 1.175, 0.49, 1.275, 0.5875, 1.3725, 0.685, 0, 0.785, 0.0975, 0.8825, 0.1975, 0.98, 0.295, 1.0775, 0.3925, 1.175, 0.49, 1.275, 0.5875, 1.3725, 0.685, 0, 0.785, 0.0975, 0.8825, 0.1975, 0.98, 0.295, 1.0775, 0.3925, 1.175, 0.49, 1.275, 0.5875, 1.3725, 0.685],
  "SoftwareVersions": "syngo_MR_E11",
  "SpacingBetweenSlices": 2,
  "StationName": "MRC35049",
  "TaskName": "shinobi",
  "TotalReadoutTime": 0.0576811,
  "TxRefAmp": 217.133,
  "WipMemBlock": "a1d76977-d335-40ad-91ce-a1dd016980ce||Sequence: R016 ve11c/master r/e634e98; Dec 19 2017 11:00:25 by eja",
  "dcmmeta_affine": [
    [-1.9976855516433716, 0.094907246530056, -0.015655143186450005, 101.58814239501953],
    [0.09420810639858246, 1.864712119102478, -0.716919481754303, -67.80252838134766],
    [0.019424259662628174, 0.7168272733688354, 1.8670246601104736, -71.42242431640625],
    [0.0, 0.0, 0.0, 1.0]
],
  "dcmmeta_reorient_transform": [
    [0.0, -1.0, 0.0, 103.0],
    [1.0, 0.0, 0.0, 0.0],
    [0.0, 0.0, 1.0, 0.0],
    [0.0, 0.0, 0.0, 1.0]
],
  "dcmmeta_shape": [104, 104, 60, 440],
  "dcmmeta_slice_dim": 2,
  "dcmmeta_version": 0.6,
  "global": {
    "const": {
      "AcquisitionMatrix": [104, 0, 0, 104],
      "AngioFlag": "N",
      "BitsAllocated": 16,
      "BitsStored": 16,
      "BodyPartExamined": "BRAIN",
      "Columns": 832,
      "EchoNumbers": 1,
      "EchoTime": 37.0,
      "EchoTrainLength": 104,
      "FlipAngle": 52.0,
      "HighBit": 15,
      "ImageOrientationPatient": [0.9988427717146, -0.047104054233, 0.00971212995742, 0.04745362488429, 0.93235606137859, -0.3584136273859],
      "ImagePositionPatient": [-873.06736357649, -768.7262832569, 256.2654741076],
      "ImageType": [
        "ORIGINAL",
        "PRIMARY",
        "M",
        "MB",
        "ND",
        "MOSAIC"
],
      "ImagedNucleus": "1H",
      "ImagingFrequency": 123.258985,
      "InPlanePhaseEncodingDirection": "COL",
      "MRAcquisitionType": "2D",
      "MagneticFieldStrength": 3.0,
      "Manufacturer": "SIEMENS",
      "ManufacturerModelName": "Prisma_fit",
      "Modality": "MR",
      "NumberOfAverages": 1.0,
      "NumberOfPhaseEncodingSteps": 104,
      "PercentPhaseFieldOfView": 100.0,
      "PercentSampling": 100.0,
      "PerformedProcedureStepStartTime": "153244.417000",
      "PhotometricInterpretation": "MONOCHROME2",
      "PixelBandwidth": 2290.0,
      "PixelRepresentation": 0,
      "PixelSpacing": [2.0, 2.0],
      "ProtocolName": "func_task-shinobi_run-4",
      "RepetitionTime": 1490.0,
      "Rows": 832,
      "SAR": 0.02952958486645,
      "SamplesPerPixel": 1,
      "ScanOptions": "FS",
      "ScanningSequence": "EP",
      "SequenceName": "epfid2d1_104",
      "SequenceVariant": [
        "SK",
        "SS"
],
      "SeriesDescription": "func_task-shinobi_run-4",
      "SeriesNumber": 15,
      "SeriesTime": "163145.352000",
      "SliceLocation": -43.164428277774,
      "SliceThickness": 2.0,
      "SmallestImagePixelValue": 0,
      "SoftwareVersions": "syngo MR E11",
      "SpacingBetweenSlices": 1.9999999485426,
      "SpecificCharacterSet": "ISO_IR 100",
      "StudyID": "1",
      "StudyTime": "153244.342000",
      "TransmitCoilName": "Body",
      "VariableFlipAngleFlag": "N",
      "WindowCenterWidthExplanation": "Algo1",
      "dBdt": 0.0},
    "slices": {}
  },
  "time": {
    "samples": {
      "AcquisitionNumber": [1, 2, 3, 4, 5, 6, 7, 8, 9, 10, 11, 12, 13, 14, 15, 16, 17, 18, 19, 20, 21, 22, 23, 24, 25, 26, 27, 28, 29, 30, 31, 32, 33, 34, 35, 36, 37, 38, 39, 40, 41, 42, 43, 44, 45, 46, 47, 48, 49, 50, 51, 52, 53, 54, 55, 56, 57, 58, 59, 60, 61, 62, 63, 64, 65, 66, 67, 68, 69, 70, 71, 72, 73, 74, 75, 76, 77, 78, 79, 80, 81, 82, 83, 84, 85, 86, 87, 88, 89, 90, 91, 92, 93, 94, 95, 96, 97, 98, 99, 100, 101, 102, 103, 104, 105, 106, 107, 108, 109, 110, 111, 112, 113, 114, 115, 116, 117, 118, 119, 120, 121, 122, 123, 124, 125, 126, 127, 128, 129, 130, 131, 132, 133, 134, 135, 136, 137, 138, 139, 140, 141, 142, 143, 144, 145, 146, 147, 148, 149, 150, 151, 152, 153, 154, 155, 156, 157, 158, 159, 160, 161, 162, 163, 164, 165, 166, 167, 168, 169, 170, 171, 172, 173, 174, 175, 176, 177, 178, 179, 180, 181, 182, 183, 184, 185, 186, 187, 188, 189, 190, 191, 192, 193, 194, 195, 196, 197, 198, 199, 200, 201, 202, 203, 204, 205, 206, 207, 208, 209, 210, 211, 212, 213, 214, 215, 216, 217, 218, 219, 220, 221, 222, 223, 224, 225, 226, 227, 228, 229, 230, 231, 232, 233, 234, 235, 236, 237, 238, 239, 240, 241, 242, 243, 244, 245, 246, 247, 248, 249, 250, 251, 252, 253, 254, 255, 256, 257, 258, 259, 260, 261, 262, 263, 264, 265, 266, 267, 268, 269, 270, 271, 272, 273, 274, 275, 276, 277, 278, 279, 280, 281, 282, 283, 284, 285, 286, 287, 288, 289, 290, 291, 292, 293, 294, 295, 296, 297, 298, 299, 300, 301, 302, 303, 304, 305, 306, 307, 308, 309, 310, 311, 312, 313, 314, 315, 316, 317, 318, 319, 320, 321, 322, 323, 324, 325, 326, 327, 328, 329, 330, 331, 332, 333, 334, 335, 336, 337, 338, 339, 340, 341, 342, 343, 344, 345, 346, 347, 348, 349, 350, 351, 352, 353, 354, 355, 356, 357, 358, 359, 360, 361, 362, 363, 364, 365, 366, 367, 368, 369, 370, 371, 372, 373, 374, 375, 376, 377, 378, 379, 380, 381, 382, 383, 384, 385, 386, 387, 388, 389, 390, 391, 392, 393, 394, 395, 396, 397, 398, 399, 400, 401, 402, 403, 404, 405, 406, 407, 408, 409, 410, 411, 412, 413, 414, 415, 416, 417, 418, 419, 420, 421, 422, 423, 424, 425, 426, 427, 428, 429, 430, 431, 432, 433, 434, 435, 436, 437, 438, 439, 440],
      "AcquisitionTime": ["163031.340000", "163032.830000", "163034.320000", "163035.810000", "163037.300000", "163038.790000", "163040.280000", "163041.770000", "163043.260000", "163044.750000", "163046.240000", "163047.730000", "163049.220000", "163050.710000", "163052.200000", "163053.690000", "163055.180000", "163056.670000", "163058.160000", "163059.650000", "163101.140000", "163102.630000", "163104.120000", "163105.610000", "163107.100000", "163108.590000", "163110.080000", "163111.570000", "163113.060000", "163114.550000", "163116.040000", "163117.530000", "163119.020000", "163120.510000", "163122.000000", "163123.490000", "163124.980000", "163126.470000", "163127.960000", "163129.450000", "163130.940000", "163132.430000", "163133.920000", "163135.410000", "163136.900000", "163138.390000", "163139.880000", "163141.370000", "163142.860000", "163144.350000", "163145.840000", "163147.330000", "163148.820000", "163150.310000", "163151.800000", "163153.290000", "163154.780000", "163156.270000", "163157.760000", "163159.250000", "163200.740000", "163202.230000", "163203.720000", "163205.210000", "163206.700000", "163208.190000", "163209.680000", "163211.170000", "163212.660000", "163214.150000", "163215.640000", "163217.130000", "163218.620000", "163220.110000", "163221.600000", "163223.090000", "163224.580000", "163226.070000", "163227.560000", "163229.050000", "163230.540000", "163232.030000", "163233.520000", "163235.010000", "163236.500000", "163237.990000", "163239.480000", "163240.970000", "163242.460000", "163243.950000", "163245.440000", "163246.930000", "163248.420000", "163249.910000", "163251.400000", "163252.890000", "163254.380000", "163255.870000", "163257.360000", "163258.850000", "163300.340000", "163301.830000", "163303.320000", "163304.810000", "163306.300000", "163307.790000", "163309.280000", "163310.770000", "163312.260000", "163313.750000", "163315.240000", "163316.730000", "163318.220000", "163319.710000", "163321.200000", "163322.690000", "163324.180000", "163325.670000", "163327.160000", "163328.650000", "163330.140000", "163331.630000", "163333.120000", "163334.610000", "163336.100000", "163337.590000", "163339.080000", "163340.570000", "163342.060000", "163343.550000", "163345.040000", "163346.530000", "163348.020000", "163349.510000", "163351.000000", "163352.490000", "163353.980000", "163355.470000", "163356.960000", "163358.450000", "163359.940000", "163401.430000", "163402.920000", "163404.410000", "163405.900000", "163407.390000", "163408.880000", "163410.370000", "163411.860000", "163413.350000", "163414.840000", "163416.330000", "163417.820000", "163419.310000", "163420.800000", "163422.290000", "163423.780000", "163425.270000", "163426.760000", "163428.250000", "163429.740000", "163431.230000", "163432.720000", "163434.210000", "163435.700000", "163437.190000", "163438.680000", "163440.170000", "163441.660000", "163443.150000", "163444.640000", "163446.130000", "163447.620000", "163449.110000", "163450.600000", "163452.090000", "163453.580000", "163455.070000", "163456.560000", "163458.050000", "163459.540000", "163501.030000", "163502.520000", "163504.010000", "163505.500000", "163506.990000", "163508.480000", "163509.970000", "163511.460000", "163512.950000", "163514.440000", "163515.930000", "163517.420000", "163518.910000", "163520.400000", "163521.890000", "163523.380000", "163524.870000", "163526.360000", "163527.850000", "163529.340000", "163530.830000", "163532.320000", "163533.810000", "163535.300000", "163536.790000", "163538.280000", "163539.770000", "163541.260000", "163542.750000", "163544.240000", "163545.730000", "163547.220000", "163548.710000", "163550.200000", "163551.690000", "163553.180000", "163554.670000", "163556.160000", "163557.650000", "163559.140000", "163600.630000", "163602.120000", "163603.610000", "163605.100000", "163606.590000", "163608.080000", "163609.570000", "163611.060000", "163612.550000", "163614.040000", "163615.530000", "163617.020000", "163618.510000", "163620.000000", "163621.490000", "163622.980000", "163624.470000", "163625.960000", "163627.450000", "163628.940000", "163630.430000", "163631.920000", "163633.410000", "163634.900000", "163636.390000", "163637.880000", "163639.370000", "163640.860000", "163642.350000", "163643.840000", "163645.330000", "163646.820000", "163648.310000", "163649.800000", "163651.290000", "163652.780000", "163654.270000", "163655.760000", "163657.250000", "163658.740000", "163700.230000", "163701.720000", "163703.210000", "163704.700000", "163706.190000", "163707.680000", "163709.170000", "163710.660000", "163712.150000", "163713.640000", "163715.130000", "163716.620000", "163718.110000", "163719.600000", "163721.090000", "163722.580000", "163724.070000", "163725.560000", "163727.050000", "163728.540000", "163730.030000", "163731.520000", "163733.010000", "163734.500000", "163735.990000", "163737.480000", "163738.970000", "163740.460000", "163741.950000", "163743.440000", "163744.930000", "163746.420000", "163747.910000", "163749.400000", "163750.890000", "163752.380000", "163753.870000", "163755.360000", "163756.850000", "163758.340000", "163759.830000", "163801.320000", "163802.810000", "163804.300000", "163805.790000", "163807.280000", "163808.770000", "163810.260000", "163811.750000", "163813.240000", "163814.730000", "163816.220000", "163817.710000", "163819.200000", "163820.690000", "163822.180000", "163823.670000", "163825.160000", "163826.650000", "163828.140000", "163829.630000", "163831.120000", "163832.610000", "163834.100000", "163835.590000", "163837.080000", "163838.570000", "163840.060000", "163841.550000", "163843.040000", "163844.530000", "163846.020000", "163847.510000", "163849.000000", "163850.490000", "163851.980000", "163853.470000", "163854.960000", "163856.450000", "163857.940000", "163859.430000", "163900.920000", "163902.410000", "163903.900000", "163905.390000", "163906.880000", "163908.370000", "163909.860000", "163911.350000", "163912.840000", "163914.330000", "163915.820000", "163917.310000", "163918.800000", "163920.290000", "163921.780000", "163923.270000", "163924.760000", "163926.250000", "163927.740000", "163929.230000", "163930.720000", "163932.210000", "163933.700000", "163935.190000", "163936.680000", "163938.170000", "163939.660000", "163941.150000", "163942.640000", "163944.130000", "163945.620000", "163947.110000", "163948.600000", "163950.090000", "163951.580000", "163953.070000", "163954.560000", "163956.050000", "163957.540000", "163959.030000", "164000.520000", "164002.010000", "164003.500000", "164004.990000", "164006.480000", "164007.970000", "164009.460000", "164010.950000", "164012.440000", "164013.930000", "164015.420000", "164016.910000", "164018.400000", "164019.890000", "164021.380000", "164022.870000", "164024.360000", "164025.850000", "164027.340000", "164028.830000", "164030.320000", "164031.810000", "164033.300000", "164034.790000", "164036.280000", "164037.770000", "164039.260000", "164040.750000", "164042.240000", "164043.730000", "164045.220000", "164046.710000", "164048.200000", "164049.690000", "164051.180000", "164052.670000", "164054.160000", "164055.650000", "164057.140000", "164058.630000", "164100.120000", "164101.610000", "164103.100000", "164104.590000", "164106.080000", "164107.570000", "164109.060000", "164110.550000", "164112.040000", "164113.530000", "164115.020000", "164116.510000", "164118.000000", "164119.490000", "164120.980000", "164122.470000", "164123.960000", "164125.450000"],
      "ContentTime": ["163145.355000", "163145.358000", "163145.361000", "163145.364000", "163145.366000", "163145.375000", "163145.378000", "163145.381000", "163145.387000", "163145.390000", "163145.393000", "163145.412000", "163145.415000", "163145.418000", "163145.421000", "163145.424000", "163145.434000", "163145.437000", "163145.440000", "163145.443000", "163145.446000", "163145.449000", "163205.324000", "163205.327000", "163205.330000", "163205.333000", "163205.346000", "163205.349000", "163205.352000", "163205.355000", "163205.358000", "163205.360000", "163205.369000", "163205.372000", "163205.375000", "163205.378000", "163205.381000", "163205.384000", "163205.387000", "163205.390000", "163205.393000", "163205.395000", "163225.323000", "163225.331000", "163225.334000", "163225.337000", "163225.341000", "163225.343000", "163225.346000", "163225.349000", "163225.352000", "163225.355000", "163225.358000", "163225.361000", "163225.364000", "163225.366000", "163225.369000", "163225.372000", "163225.382000", "163225.385000", "163225.388000", "163225.391000", "163245.323000", "163245.326000", "163245.329000", "163245.332000", "163245.335000", "163245.337000", "163245.340000", "163245.343000", "163245.346000", "163245.349000", "163245.352000", "163245.354000", "163245.357000", "163245.360000", "163245.363000", "163245.366000", "163245.369000", "163245.372000", "163245.374000", "163245.377000", "163245.380000", "163325.323000", "163325.326000", "163325.329000", "163325.332000", "163325.335000", "163325.337000", "163325.340000", "163325.343000", "163325.346000", "163325.349000", "163325.352000", "163325.355000", "163325.357000", "163325.369000", "163325.372000", "163325.382000", "163325.385000", "163325.388000", "163325.390000", "163325.393000", "163325.396000", "163325.399000", "163325.402000", "163325.405000", "163325.408000", "163325.411000", "163325.414000", "163325.416000", "163325.419000", "163325.422000", "163325.425000", "163325.428000", "163325.431000", "163405.324000", "163405.327000", "163405.330000", "163405.333000", "163405.336000", "163405.338000", "163405.341000", "163405.344000", "163405.347000", "163405.350000", "163405.353000", "163405.355000", "163405.358000", "163405.361000", "163405.364000", "163405.367000", "163405.370000", "163405.373000", "163405.375000", "163405.378000", "163405.381000", "163405.384000", "163405.387000", "163405.389000", "163405.397000", "163405.400000", "163405.403000", "163445.323000", "163445.326000", "163445.329000", "163445.332000", "163445.335000", "163445.337000", "163445.340000", "163445.343000", "163445.346000", "163445.349000", "163445.352000", "163445.355000", "163445.358000", "163445.361000", "163445.363000", "163445.366000", "163445.369000", "163445.372000", "163445.375000", "163445.378000", "163445.381000", "163445.384000", "163445.386000", "163445.389000", "163445.392000", "163445.395000", "163525.323000", "163525.326000", "163525.329000", "163525.332000", "163525.334000", "163525.337000", "163525.340000", "163525.343000", "163525.346000", "163525.349000", "163525.352000", "163525.354000", "163525.357000", "163525.360000", "163525.363000", "163525.366000", "163525.369000", "163525.372000", "163525.374000", "163525.377000", "163525.380000", "163525.383000", "163525.386000", "163525.394000", "163525.397000", "163525.400000", "163525.403000", "163605.323000", "163605.326000", "163605.329000", "163605.332000", "163605.335000", "163605.337000", "163605.340000", "163605.343000", "163605.346000", "163605.349000", "163605.352000", "163605.355000", "163605.369000", "163605.372000", "163605.382000", "163605.385000", "163605.388000", "163605.390000", "163605.393000", "163605.396000", "163605.399000", "163605.402000", "163605.405000", "163605.407000", "163605.410000", "163605.413000", "163605.416000", "163645.324000", "163645.327000", "163645.330000", "163645.333000", "163645.335000", "163645.338000", "163645.341000", "163645.344000", "163645.347000", "163645.350000", "163645.353000", "163645.356000", "163645.358000", "163645.361000", "163645.364000", "163645.367000", "163645.370000", "163645.373000", "163645.375000", "163645.378000", "163645.381000", "163645.384000", "163645.387000", "163645.390000", "163645.393000", "163645.395000", "163645.398000", "163725.323000", "163725.326000", "163725.329000", "163725.332000", "163725.335000", "163725.337000", "163725.340000", "163725.343000", "163725.346000", "163725.349000", "163725.352000", "163725.355000", "163725.358000", "163725.361000", "163725.363000", "163725.366000", "163725.369000", "163725.372000", "163725.375000", "163725.378000", "163725.381000", "163725.384000", "163725.387000", "163725.389000", "163725.392000", "163725.395000", "163725.398000", "163745.323000", "163745.326000", "163745.329000", "163745.332000", "163745.335000", "163745.337000", "163745.340000", "163745.343000", "163745.346000", "163745.349000", "163745.352000", "163745.355000", "163745.358000", "163825.323000", "163825.326000", "163825.329000", "163825.332000", "163825.334000", "163825.337000", "163825.340000", "163825.343000", "163825.346000", "163825.349000", "163825.352000", "163825.355000", "163825.358000", "163825.360000", "163825.363000", "163825.366000", "163825.369000", "163825.372000", "163825.375000", "163825.378000", "163825.381000", "163825.384000", "163825.386000", "163825.389000", "163825.392000", "163825.395000", "163825.398000", "163905.324000", "163905.327000", "163905.330000", "163905.333000", "163905.336000", "163905.338000", "163905.341000", "163905.344000", "163905.347000", "163905.350000", "163905.353000", "163905.356000", "163905.359000", "163905.361000", "163905.364000", "163905.367000", "163905.370000", "163905.373000", "163905.376000", "163905.379000", "163905.381000", "163905.384000", "163905.387000", "163905.390000", "163905.393000", "163905.396000", "163905.399000", "163945.323000", "163945.326000", "163945.329000", "163945.332000", "163945.335000", "163945.338000", "163945.340000", "163945.343000", "163945.346000", "163945.349000", "163945.352000", "163945.355000", "163945.358000", "163945.361000", "163945.363000", "163945.366000", "163945.369000", "163945.372000", "163945.375000", "163945.378000", "163945.380000", "163945.383000", "163945.386000", "163945.389000", "163945.392000", "163945.395000", "163945.398000", "164025.323000", "164025.326000", "164025.329000", "164025.332000", "164025.335000", "164025.338000", "164025.341000", "164025.344000", "164025.347000", "164025.350000", "164025.353000", "164025.356000", "164025.358000", "164025.362000", "164025.364000", "164025.367000", "164025.370000", "164025.373000", "164025.376000", "164025.379000", "164025.382000", "164025.398000", "164025.401000", "164025.404000", "164025.407000", "164025.410000", "164025.412000", "164105.324000", "164105.327000", "164105.330000", "164105.333000", "164105.336000", "164105.339000", "164105.342000", "164105.345000", "164105.348000", "164105.350000", "164105.354000", "164105.357000", "164105.359000", "164105.362000", "164105.365000", "164105.369000", "164105.372000", "164105.375000", "164105.378000", "164105.381000", "164105.384000", "164105.387000", "164105.390000", "164105.393000", "164105.396000", "164105.399000", "164128.728000", "164128.731000", "164128.734000", "164128.737000", "164128.740000", "164128.743000", "164128.746000", "164128.749000", "164128.752000", "164128.755000", "164128.757000", "164128.760000", "164128.763000", "164128.766000", "164128.769000", "164128.772000"],
