{
  "AcquisitionMatrixPE": 104,
  "AcquisitionNumber": 1,
  "AcquisitionTime": "16:04:25.837500",
  "BandwidthPerPixelPhaseEncode": 17.17,
  "BaseResolution": 104,
  "BodyPartExamined": "BRAIN",
  "CoilString": "HC1-7;NC1_2",
  "ConsistencyInfo": "N4_VE11C_LATEST_20160120",
  "ConversionSoftware": "dcm2niix",
  "ConversionSoftwareVersion": "v1.0.20190902",
  "DerivedVendorReportedEchoSpacing": 0.000560011,
  "DeviceSerialNumber": "167006",
  "DwellTime": 2.1e-06,
  "EchoTime": 0.037,
  "EchoTrainLength": 104,
  "EffectiveEchoSpacing": 0.000560011,
  "FlipAngle": 52,
  "ImageComments": "Unaliased_MB4_PE3_LB",
  "ImageOrientationPatientDICOM": [0.998843, -0.0471041, 0.00971213, 0.0474536, 0.932356, -0.358414],
  "ImageType": [
    "ORIGINAL",
    "PRIMARY",
    "M",
    "MB",
    "ND",
    "MOSAIC"
],
  "ImagingFrequency": 123.259,
  "InPlanePhaseEncodingDirectionDICOM": "COL",
  "InstitutionAddress": "Chemin_Queen-Mary_4565_Montreal_District_CA_H3W_1W5",
  "InstitutionName": "IUGM",
  "InstitutionalDepartmentName": "Department",
  "MRAcquisitionType": "2D",
  "MagneticFieldStrength": 3,
  "Manufacturer": "Siemens",
  "ManufacturersModelName": "Prisma_fit",
  "Modality": "MR",
  "MultibandAccelerationFactor": 4,
  "PartialFourier": 1,
  "PatientPosition": "HFS",
  "PercentPhaseFOV": 100,
  "PhaseEncodingDirection": "j",
  "PhaseEncodingSteps": 104,
  "PhaseResolution": 1,
  "PixelBandwidth": 2290,
  "ProcedureStepDescription": "games_shinobi",
  "ProtocolName": "func_task-shinobi_run-2",
  "PulseSequenceDetails": "%CustomerSeq%_cmrr_mbep2d_bold",
  "ReceiveCoilActiveElements": "HC1-7;NC1,2",
  "ReceiveCoilName": "HeadNeck_64",
  "ReconMatrixPE": 104,
  "RepetitionTime": 1.49,
  "SAR": 0.0295296,
  "ScanOptions": "FS",
  "ScanningSequence": "EP",
  "SequenceName": "epfid2d1_104",
  "SequenceVariant": "SK_SS",
  "SeriesDescription": "func_task-shinobi_run-2",
  "SeriesNumber": 11,
  "ShimSetting": [634, -7254, -8849, 599, 12, -252, -31, -21],
  "SliceThickness": 2,
  "SliceTiming": [0, 0.7825, 0.0975, 0.88, 0.195, 0.98, 0.2925, 1.0775, 0.39, 1.175, 0.49, 1.2725, 0.5875, 1.37, 0.685, 0, 0.7825, 0.0975, 0.88, 0.195, 0.98, 0.2925, 1.0775, 0.39, 1.175, 0.49, 1.2725, 0.5875, 1.37, 0.685, 0, 0.7825, 0.0975, 0.88, 0.195, 0.98, 0.2925, 1.0775, 0.39, 1.175, 0.49, 1.2725, 0.5875, 1.37, 0.685, 0, 0.7825, 0.0975, 0.88, 0.195, 0.98, 0.2925, 1.0775, 0.39, 1.175, 0.49, 1.2725, 0.5875, 1.37, 0.685],
  "SoftwareVersions": "syngo_MR_E11",
  "SpacingBetweenSlices": 2,
  "StationName": "MRC35049",
  "TaskName": "shinobi",
  "TotalReadoutTime": 0.0576811,
  "TxRefAmp": 217.133,
  "WipMemBlock": "4ef70eba-5cba-466b-9c8e-ff0faf12c9b9||Sequence: R016 ve11c/master r/e634e98; Dec 19 2017 11:00:25 by eja",
  "dcmmeta_affine": [
    [-1.9976855516433716, 0.094907246530056, -0.015655143186450005, 101.58814239501953],
    [0.09420810639858246, 1.864712119102478, -0.716919481754303, -67.80252838134766],
    [0.019424259662628174, 0.7168272733688354, 1.8670246601104736, -71.42242431640625],
    [0.0, 0.0, 0.0, 1.0]
],
  "dcmmeta_reorient_transform": [
    [0.0, -1.0, 0.0, 103.0],
    [1.0, 0.0, 0.0, 0.0],
    [0.0, 0.0, 1.0, 0.0],
    [0.0, 0.0, 0.0, 1.0]
],
  "dcmmeta_shape": [104, 104, 60, 540],
  "dcmmeta_slice_dim": 2,
  "dcmmeta_version": 0.6,
  "global": {
    "const": {
      "AcquisitionMatrix": [104, 0, 0, 104],
      "AngioFlag": "N",
      "BitsAllocated": 16,
      "BitsStored": 16,
      "BodyPartExamined": "BRAIN",
      "Columns": 832,
      "EchoNumbers": 1,
      "EchoTime": 37.0,
      "EchoTrainLength": 104,
      "FlipAngle": 52.0,
      "HighBit": 15,
      "ImageOrientationPatient": [0.9988427717146, -0.047104054233, 0.00971212995742, 0.04745362488429, 0.93235606137859, -0.3584136273859],
      "ImagePositionPatient": [-873.06736357649, -768.7262832569, 256.2654741076],
      "ImageType": [
        "ORIGINAL",
        "PRIMARY",
        "M",
        "MB",
        "ND",
        "MOSAIC"
],
      "ImagedNucleus": "1H",
      "ImagingFrequency": 123.258974,
      "InPlanePhaseEncodingDirection": "COL",
      "MRAcquisitionType": "2D",
      "MagneticFieldStrength": 3.0,
      "Manufacturer": "SIEMENS",
      "ManufacturerModelName": "Prisma_fit",
      "Modality": "MR",
      "NumberOfAverages": 1.0,
      "NumberOfPhaseEncodingSteps": 104,
      "PercentPhaseFieldOfView": 100.0,
      "PercentSampling": 100.0,
      "PerformedProcedureStepStartTime": "153244.417000",
      "PhotometricInterpretation": "MONOCHROME2",
      "PixelBandwidth": 2290.0,
      "PixelRepresentation": 0,
      "PixelSpacing": [2.0, 2.0],
      "ProtocolName": "func_task-shinobi_run-2",
      "RepetitionTime": 1490.0,
      "Rows": 832,
      "SAR": 0.02952958486645,
      "SamplesPerPixel": 1,
      "ScanOptions": "FS",
      "ScanningSequence": "EP",
      "SequenceName": "epfid2d1_104",
      "SequenceVariant": [
        "SK",
        "SS"
],
      "SeriesDescription": "func_task-shinobi_run-2",
      "SeriesNumber": 11,
      "SeriesTime": "160545.117000",
      "SliceLocation": -43.164428277774,
      "SliceThickness": 2.0,
      "SmallestImagePixelValue": 0,
      "SoftwareVersions": "syngo MR E11",
      "SpacingBetweenSlices": 1.9999999485426,
      "SpecificCharacterSet": "ISO_IR 100",
      "StudyID": "1",
      "StudyTime": "153244.342000",
      "TransmitCoilName": "Body",
      "VariableFlipAngleFlag": "N",
      "WindowCenterWidthExplanation": "Algo1",
      "dBdt": 0.0},
    "slices": {}
  },
  "time": {
    "samples": {
      "AcquisitionNumber": [1, 2, 3, 4, 5, 6, 7, 8, 9, 10, 11, 12, 13, 14, 15, 16, 17, 18, 19, 20, 21, 22, 23, 24, 25, 26, 27, 28, 29, 30, 31, 32, 33, 34, 35, 36, 37, 38, 39, 40, 41, 42, 43, 44, 45, 46, 47, 48, 49, 50, 51, 52, 53, 54, 55, 56, 57, 58, 59, 60, 61, 62, 63, 64, 65, 66, 67, 68, 69, 70, 71, 72, 73, 74, 75, 76, 77, 78, 79, 80, 81, 82, 83, 84, 85, 86, 87, 88, 89, 90, 91, 92, 93, 94, 95, 96, 97, 98, 99, 100, 101, 102, 103, 104, 105, 106, 107, 108, 109, 110, 111, 112, 113, 114, 115, 116, 117, 118, 119, 120, 121, 122, 123, 124, 125, 126, 127, 128, 129, 130, 131, 132, 133, 134, 135, 136, 137, 138, 139, 140, 141, 142, 143, 144, 145, 146, 147, 148, 149, 150, 151, 152, 153, 154, 155, 156, 157, 158, 159, 160, 161, 162, 163, 164, 165, 166, 167, 168, 169, 170, 171, 172, 173, 174, 175, 176, 177, 178, 179, 180, 181, 182, 183, 184, 185, 186, 187, 188, 189, 190, 191, 192, 193, 194, 195, 196, 197, 198, 199, 200, 201, 202, 203, 204, 205, 206, 207, 208, 209, 210, 211, 212, 213, 214, 215, 216, 217, 218, 219, 220, 221, 222, 223, 224, 225, 226, 227, 228, 229, 230, 231, 232, 233, 234, 235, 236, 237, 238, 239, 240, 241, 242, 243, 244, 245, 246, 247, 248, 249, 250, 251, 252, 253, 254, 255, 256, 257, 258, 259, 260, 261, 262, 263, 264, 265, 266, 267, 268, 269, 270, 271, 272, 273, 274, 275, 276, 277, 278, 279, 280, 281, 282, 283, 284, 285, 286, 287, 288, 289, 290, 291, 292, 293, 294, 295, 296, 297, 298, 299, 300, 301, 302, 303, 304, 305, 306, 307, 308, 309, 310, 311, 312, 313, 314, 315, 316, 317, 318, 319, 320, 321, 322, 323, 324, 325, 326, 327, 328, 329, 330, 331, 332, 333, 334, 335, 336, 337, 338, 339, 340, 341, 342, 343, 344, 345, 346, 347, 348, 349, 350, 351, 352, 353, 354, 355, 356, 357, 358, 359, 360, 361, 362, 363, 364, 365, 366, 367, 368, 369, 370, 371, 372, 373, 374, 375, 376, 377, 378, 379, 380, 381, 382, 383, 384, 385, 386, 387, 388, 389, 390, 391, 392, 393, 394, 395, 396, 397, 398, 399, 400, 401, 402, 403, 404, 405, 406, 407, 408, 409, 410, 411, 412, 413, 414, 415, 416, 417, 418, 419, 420, 421, 422, 423, 424, 425, 426, 427, 428, 429, 430, 431, 432, 433, 434, 435, 436, 437, 438, 439, 440, 441, 442, 443, 444, 445, 446, 447, 448, 449, 450, 451, 452, 453, 454, 455, 456, 457, 458, 459, 460, 461, 462, 463, 464, 465, 466, 467, 468, 469, 470, 471, 472, 473, 474, 475, 476, 477, 478, 479, 480, 481, 482, 483, 484, 485, 486, 487, 488, 489, 490, 491, 492, 493, 494, 495, 496, 497, 498, 499, 500, 501, 502, 503, 504, 505, 506, 507, 508, 509, 510, 511, 512, 513, 514, 515, 516, 517, 518, 519, 520, 521, 522, 523, 524, 525, 526, 527, 528, 529, 530, 531, 532, 533, 534, 535, 536, 537, 538, 539, 540],
      "AcquisitionTime": ["160425.837500", "160427.327500", "160428.817500", "160430.307500", "160431.797500", "160433.287500", "160434.777500", "160436.267500", "160437.757500", "160439.247500", "160440.737500", "160442.227500", "160443.717500", "160445.207500", "160446.697500", "160448.187500", "160449.677500", "160451.167500", "160452.657500", "160454.147500", "160455.637500", "160457.127500", "160458.617500", "160500.107500", "160501.597500", "160503.087500", "160504.577500", "160506.067500", "160507.557500", "160509.047500", "160510.537500", "160512.027500", "160513.517500", "160515.007500", "160516.497500", "160517.987500", "160519.477500", "160520.967500", "160522.457500", "160523.947500", "160525.437500", "160526.927500", "160528.417500", "160529.907500", "160531.397500", "160532.887500", "160534.377500", "160535.867500", "160537.357500", "160538.847500", "160540.337500", "160541.827500", "160543.317500", "160544.807500", "160546.297500", "160547.787500", "160549.277500", "160550.767500", "160552.257500", "160553.747500", "160555.237500", "160556.727500", "160558.217500", "160559.707500", "160601.197500", "160602.687500", "160604.177500", "160605.667500", "160607.157500", "160608.647500", "160610.137500", "160611.627500", "160613.117500", "160614.607500", "160616.097500", "160617.587500", "160619.077500", "160620.567500", "160622.057500", "160623.547500", "160625.037500", "160626.527500", "160628.017500", "160629.507500", "160630.997500", "160632.487500", "160633.977500", "160635.467500", "160636.957500", "160638.447500", "160639.937500", "160641.427500", "160642.917500", "160644.407500", "160645.897500", "160647.387500", "160648.877500", "160650.367500", "160651.857500", "160653.347500", "160654.837500", "160656.327500", "160657.817500", "160659.307500", "160700.797500", "160702.287500", "160703.777500", "160705.267500", "160706.757500", "160708.247500", "160709.737500", "160711.227500", "160712.717500", "160714.207500", "160715.697500", "160717.187500", "160718.677500", "160720.167500", "160721.657500", "160723.147500", "160724.637500", "160726.127500", "160727.617500", "160729.107500", "160730.597500", "160732.087500", "160733.577500", "160735.067500", "160736.557500", "160738.047500", "160739.537500", "160741.027500", "160742.517500", "160744.007500", "160745.497500", "160746.987500", "160748.477500", "160749.967500", "160751.457500", "160752.947500", "160754.437500", "160755.927500", "160757.417500", "160758.907500", "160800.397500", "160801.887500", "160803.377500", "160804.867500", "160806.357500", "160807.847500", "160809.337500", "160810.827500", "160812.317500", "160813.807500", "160815.297500", "160816.787500", "160818.277500", "160819.767500", "160821.257500", "160822.747500", "160824.237500", "160825.727500", "160827.217500", "160828.707500", "160830.197500", "160831.687500", "160833.177500", "160834.667500", "160836.157500", "160837.647500", "160839.137500", "160840.627500", "160842.117500", "160843.607500", "160845.097500", "160846.587500", "160848.077500", "160849.567500", "160851.057500", "160852.547500", "160854.037500", "160855.527500", "160857.017500", "160858.507500", "160859.997500", "160901.487500", "160902.977500", "160904.467500", "160905.957500", "160907.447500", "160908.937500", "160910.427500", "160911.917500", "160913.407500", "160914.897500", "160916.387500", "160917.877500", "160919.367500", "160920.857500", "160922.347500", "160923.837500", "160925.327500", "160926.817500", "160928.307500", "160929.797500", "160931.287500", "160932.777500", "160934.267500", "160935.757500", "160937.247500", "160938.737500", "160940.227500", "160941.717500", "160943.207500", "160944.697500", "160946.187500", "160947.677500", "160949.167500", "160950.657500", "160952.147500", "160953.637500", "160955.127500", "160956.617500", "160958.107500", "160959.597500", "161001.087500", "161002.577500", "161004.067500", "161005.557500", "161007.047500", "161008.537500", "161010.027500", "161011.517500", "161013.007500", "161014.497500", "161015.987500", "161017.477500", "161018.967500", "161020.457500", "161021.947500", "161023.437500", "161024.927500", "161026.417500", "161027.907500", "161029.397500", "161030.887500", "161032.377500", "161033.867500", "161035.357500", "161036.847500", "161038.337500", "161039.827500", "161041.317500", "161042.807500", "161044.297500", "161045.787500", "161047.277500", "161048.767500", "161050.257500", "161051.747500", "161053.237500", "161054.727500", "161056.217500", "161057.707500", "161059.197500", "161100.687500", "161102.177500", "161103.667500", "161105.157500", "161106.647500", "161108.137500", "161109.627500", "161111.117500", "161112.607500", "161114.097500", "161115.587500", "161117.077500", "161118.567500", "161120.057500", "161121.547500", "161123.037500", "161124.527500", "161126.017500", "161127.507500", "161128.997500", "161130.487500", "161131.977500", "161133.467500", "161134.957500", "161136.447500", "161137.937500", "161139.427500", "161140.917500", "161142.407500", "161143.897500", "161145.387500", "161146.877500", "161148.367500", "161149.857500", "161151.347500", "161152.837500", "161154.327500", "161155.817500", "161157.307500", "161158.797500", "161200.287500", "161201.777500", "161203.267500", "161204.757500", "161206.247500", "161207.737500", "161209.227500", "161210.717500", "161212.207500", "161213.697500", "161215.187500", "161216.677500", "161218.167500", "161219.657500", "161221.147500", "161222.637500", "161224.127500", "161225.617500", "161227.107500", "161228.597500", "161230.087500", "161231.577500", "161233.067500", "161234.557500", "161236.047500", "161237.537500", "161239.027500", "161240.517500", "161242.007500", "161243.497500", "161244.987500", "161246.477500", "161247.967500", "161249.457500", "161250.947500", "161252.437500", "161253.927500", "161255.417500", "161256.907500", "161258.397500", "161259.887500", "161301.377500", "161302.867500", "161304.357500", "161305.847500", "161307.337500", "161308.827500", "161310.317500", "161311.807500", "161313.297500", "161314.787500", "161316.277500", "161317.767500", "161319.257500", "161320.747500", "161322.237500", "161323.727500", "161325.217500", "161326.707500", "161328.197500", "161329.687500", "161331.177500", "161332.667500", "161334.157500", "161335.647500", "161337.137500", "161338.627500", "161340.117500", "161341.607500", "161343.097500", "161344.587500", "161346.077500", "161347.567500", "161349.057500", "161350.547500", "161352.037500", "161353.527500", "161355.017500", "161356.507500", "161357.997500", "161359.487500", "161400.977500", "161402.467500", "161403.957500", "161405.447500", "161406.937500", "161408.427500", "161409.917500", "161411.407500", "161412.897500", "161414.387500", "161415.877500", "161417.367500", "161418.857500", "161420.347500", "161421.837500", "161423.327500", "161424.817500", "161426.307500", "161427.797500", "161429.287500", "161430.777500", "161432.267500", "161433.757500", "161435.247500", "161436.737500", "161438.227500", "161439.717500", "161441.207500", "161442.697500", "161444.187500", "161445.677500", "161447.167500", "161448.657500", "161450.147500", "161451.637500", "161453.127500", "161454.617500", "161456.107500", "161457.597500", "161459.087500", "161500.577500", "161502.067500", "161503.557500", "161505.047500", "161506.537500", "161508.027500", "161509.517500", "161511.007500", "161512.497500", "161513.987500", "161515.477500", "161516.967500", "161518.457500", "161519.947500", "161521.437500", "161522.927500", "161524.417500", "161525.907500", "161527.397500", "161528.887500", "161530.377500", "161531.867500", "161533.357500", "161534.847500", "161536.337500", "161537.827500", "161539.317500", "161540.807500", "161542.297500", "161543.787500", "161545.277500", "161546.767500", "161548.257500", "161549.747500", "161551.237500", "161552.727500", "161554.217500", "161555.707500", "161557.197500", "161558.687500", "161600.177500", "161601.667500", "161603.157500", "161604.647500", "161606.137500", "161607.627500", "161609.117500", "161610.607500", "161612.097500", "161613.587500", "161615.077500", "161616.567500", "161618.057500", "161619.547500", "161621.037500", "161622.527500", "161624.017500", "161625.507500", "161626.997500", "161628.487500", "161629.977500", "161631.467500", "161632.957500", "161634.447500", "161635.937500", "161637.427500", "161638.917500", "161640.407500", "161641.897500", "161643.387500", "161644.877500", "161646.367500", "161647.857500", "161649.347500", "161650.837500", "161652.327500", "161653.817500", "161655.307500", "161656.797500", "161658.287500", "161659.777500", "161701.267500", "161702.757500", "161704.247500", "161705.737500", "161707.227500", "161708.717500", "161710.207500", "161711.697500", "161713.187500", "161714.677500", "161716.167500", "161717.657500", "161719.147500", "161720.637500", "161722.127500", "161723.617500", "161725.107500", "161726.597500", "161728.087500", "161729.577500", "161731.067500", "161732.557500", "161734.047500", "161735.537500", "161737.027500", "161738.517500", "161740.007500", "161741.497500", "161742.987500", "161744.477500", "161745.967500", "161747.457500", "161748.947500"],
      "ContentTime": ["160545.120000", "160545.123000", "160545.126000", "160545.129000", "160545.132000", "160545.135000", "160545.138000", "160545.141000", "160545.144000", "160545.147000", "160545.157000", "160545.166000", "160545.168000", "160545.177000", "160545.180000", "160545.183000", "160545.185000", "160545.188000", "160545.191000", "160545.194000", "160545.197000", "160545.199000", "160545.202000", "160545.205000", "160545.208000", "160605.096000", "160605.099000", "160605.103000", "160605.105000", "160605.108000", "160605.111000", "160605.114000", "160605.117000", "160605.120000", "160605.123000", "160605.126000", "160605.129000", "160605.147000", "160605.150000", "160605.152000", "160605.155000", "160605.158000", "160605.161000", "160605.164000", "160605.167000", "160625.096000", "160625.099000", "160625.102000", "160625.104000", "160625.114000", "160625.117000", "160625.120000", "160625.123000", "160625.126000", "160625.129000", "160625.131000", "160625.141000", "160625.144000", "160625.147000", "160625.150000", "160625.152000", "160625.164000", "160625.166000", "160625.169000", "160625.172000", "160625.175000", "160645.096000", "160645.099000", "160645.102000", "160645.104000", "160645.107000", "160645.110000", "160645.113000", "160645.116000", "160645.119000", "160645.121000", "160645.124000", "160645.127000", "160645.130000", "160645.133000", "160645.136000", "160645.145000", "160645.148000", "160645.151000", "160645.154000", "160645.156000", "160705.096000", "160705.099000", "160705.102000", "160705.105000", "160705.107000", "160705.110000", "160705.113000", "160705.116000", "160705.119000", "160705.129000", "160705.131000", "160705.134000", "160705.137000", "160705.140000", "160705.143000", "160705.146000", "160705.148000", "160705.151000", "160705.154000", "160705.157000", "160745.096000", "160745.104000", "160745.107000", "160745.110000", "160745.112000", "160745.115000", "160745.118000", "160745.121000", "160745.124000", "160745.127000", "160745.130000", "160745.132000", "160745.135000", "160745.138000", "160745.141000", "160745.144000", "160745.147000", "160745.149000", "160745.152000", "160745.155000", "160745.158000", "160745.161000", "160745.164000", "160745.166000", "160745.169000", "160745.172000", "160745.175000", "160825.096000", "160825.099000", "160825.102000", "160825.105000", "160825.107000", "160825.110000", "160825.113000", "160825.116000", "160825.119000", "160825.122000", "160825.125000", "160825.128000", "160825.131000", "160825.133000", "160825.136000", "160825.139000", "160825.142000", "160825.145000", "160825.148000", "160825.150000", "160825.153000", "160825.156000", "160825.159000", "160825.162000", "160825.165000", "160825.168000", "160825.171000", "160905.096000", "160905.099000", "160905.102000", "160905.104000", "160905.107000", "160905.110000", "160905.113000", "160905.116000", "160905.119000", "160905.122000", "160905.125000", "160905.127000", "160905.130000", "160905.133000", "160905.136000", "160905.139000", "160905.142000", "160905.145000", "160905.147000", "160905.150000", "160905.153000", "160905.156000", "160905.159000", "160905.161000", "160905.164000", "160905.167000", "160905.170000", "160945.096000", "160945.099000", "160945.102000", "160945.104000", "160945.107000", "160945.110000", "160945.113000", "160945.116000", "160945.119000", "160945.122000", "160945.125000", "160945.128000", "160945.130000", "160945.133000", "160945.136000", "160945.139000", "160945.142000", "160945.145000", "160945.148000", "160945.150000", "160945.153000", "160945.167000", "160945.170000", "160945.172000", "160945.175000", "160945.178000", "160945.181000", "161025.096000", "161025.099000", "161025.102000", "161025.104000", "161025.107000", "161025.110000", "161025.113000", "161025.116000", "161025.119000", "161025.122000", "161025.125000", "161025.128000", "161025.130000", "161025.133000", "161025.136000", "161025.139000", "161025.143000", "161025.146000", "161025.149000", "161025.152000", "161025.155000", "161025.158000", "161025.160000", "161025.163000", "161025.166000", "161025.169000", "161105.096000", "161105.099000", "161105.102000", "161105.105000", "161105.108000", "161105.110000", "161105.113000", "161105.116000", "161105.119000", "161105.122000", "161105.125000", "161105.128000", "161105.130000", "161105.133000", "161105.136000", "161105.139000", "161105.142000", "161105.145000", "161105.148000", "161105.150000", "161105.153000", "161105.156000", "161105.159000", "161105.162000", "161105.165000", "161105.168000", "161105.170000", "161145.096000", "161145.099000", "161145.102000", "161145.105000", "161145.107000", "161145.110000", "161145.113000", "161145.116000", "161145.119000", "161145.122000", "161145.125000", "161145.128000", "161145.130000", "161145.133000", "161145.136000", "161145.139000", "161145.142000", "161145.145000", "161145.148000", "161145.150000", "161145.153000", "161145.156000", "161145.159000", "161145.162000", "161145.165000", "161145.168000", "161145.171000", "161225.096000", "161225.099000", "161225.102000", "161225.105000", "161225.108000", "161225.110000", "161225.113000", "161225.116000", "161225.119000", "161225.122000", "161225.125000", "161225.128000", "161225.131000", "161225.134000", "161225.136000", "161225.139000", "161225.142000", "161225.145000", "161225.148000", "161225.151000", "161225.154000", "161225.156000", "161225.159000", "161225.162000", "161225.165000", "161225.168000", "161225.171000", "161305.096000", "161305.099000", "161305.102000", "161305.105000", "161305.108000", "161305.111000", "161305.114000", "161305.116000", "161305.119000", "161305.122000", "161305.125000", "161305.128000", "161305.131000", "161305.134000", "161305.137000", "161305.140000", "161305.143000", "161305.146000", "161305.149000", "161305.152000", "161305.155000", "161305.158000", "161305.160000", "161305.163000", "161305.166000", "161305.169000", "161305.172000", "161345.096000", "161345.099000", "161345.102000", "161345.105000", "161345.108000", "161345.111000", "161345.114000", "161345.117000", "161345.119000", "161345.122000", "161345.125000", "161345.128000", "161345.131000", "161345.134000", "161345.137000", "161345.140000", "161345.142000", "161345.145000", "161345.148000", "161345.151000", "161345.154000", "161345.157000", "161345.160000", "161345.163000", "161345.166000", "161345.169000", "161345.172000", "161425.096000", "161425.099000", "161425.102000", "161425.105000", "161425.108000", "161425.111000", "161425.113000", "161425.116000", "161425.119000", "161425.122000", "161425.125000", "161425.128000", "161425.131000", "161425.133000", "161425.136000", "161425.139000", "161425.142000", "161425.158000", "161425.161000", "161425.165000", "161425.168000", "161425.171000", "161425.174000", "161425.177000", "161425.179000", "161425.182000", "161505.096000", "161505.099000", "161505.102000", "161505.105000", "161505.108000", "161505.110000", "161505.113000", "161505.116000", "161505.119000", "161505.122000", "161505.125000", "161505.128000", "161505.130000", "161505.133000", "161505.136000", "161505.139000", "161505.142000", "161505.145000", "161505.148000", "161505.150000", "161505.153000", "161505.156000", "161505.159000", "161505.162000", "161505.165000", "161505.168000", "161505.170000", "161545.096000", "161545.099000", "161545.102000", "161545.105000", "161545.108000", "161545.111000", "161545.113000", "161545.116000", "161545.119000", "161545.122000", "161545.125000", "161545.128000", "161545.131000", "161545.133000", "161545.136000", "161545.139000", "161545.142000", "161545.145000", "161545.148000", "161545.151000", "161545.154000", "161545.156000", "161545.159000", "161545.162000", "161545.165000", "161545.168000", "161545.171000", "161625.096000", "161625.100000", "161625.103000", "161625.107000", "161625.110000", "161625.114000", "161625.117000", "161625.120000", "161625.124000", "161625.127000", "161625.130000", "161625.134000", "161625.137000", "161625.140000", "161625.144000", "161625.147000", "161625.150000", "161625.154000", "161625.157000", "161625.161000", "161625.164000", "161625.167000", "161625.170000", "161625.174000", "161625.177000", "161625.180000", "161625.184000", "161705.096000", "161705.099000", "161705.102000", "161705.105000", "161705.108000", "161705.111000", "161705.114000", "161705.116000", "161705.119000", "161705.122000", "161705.125000", "161705.128000", "161705.131000", "161705.134000", "161705.137000", "161705.139000", "161705.142000", "161705.145000", "161705.148000", "161705.151000", "161705.154000", "161705.157000", "161705.160000", "161705.162000", "161705.165000", "161705.168000", "161705.171000", "161745.096000", "161745.099000", "161745.102000", "161745.105000", "161745.108000", "161745.111000", "161745.114000", "161745.116000", "161745.119000", "161745.122000", "161745.125000", "161745.128000", "161745.131000", "161745.134000", "161745.136000", "161745.139000", "161745.142000", "161745.145000", "161745.148000", "161745.151000", "161745.154000", "161745.157000", "161745.160000", "161745.162000", "161745.165000", "161745.168000", "161745.171000", "161751.009000", "161751.012000", "161751.016000", "161751.019000"],
