{
  "AcquisitionMatrixPE": 104,
  "AcquisitionNumber": 1,
  "AcquisitionTime": "15:38:51.155000",
  "BandwidthPerPixelPhaseEncode": 17.17,
  "BaseResolution": 104,
  "BodyPartExamined": "BRAIN",
  "CoilString": "HC1-7;NC1_2",
  "ConsistencyInfo": "N4_VE11C_LATEST_20160120",
  "ConversionSoftware": "dcm2niix",
  "ConversionSoftwareVersion": "v1.0.20200427",
  "DerivedVendorReportedEchoSpacing": 0.000560011,
  "DeviceSerialNumber": "167006",
  "DwellTime": 2.1e-06,
  "EchoTime": 0.037,
  "EchoTrainLength": 104,
  "EffectiveEchoSpacing": 0.000560011,
  "FlipAngle": 52,
  "ImageComments": "Unaliased_MB4_PE3_LB",
  "ImageOrientationPatientDICOM": [0.997547, 0.066106, 0.0230125, -0.0569941, 0.957947, -0.281227],
  "ImageType": [
    "ORIGINAL",
    "PRIMARY",
    "M",
    "MB",
    "ND",
    "MOSAIC"
],
  "ImagingFrequency": 123.259,
  "InPlanePhaseEncodingDirectionDICOM": "COL",
  "InstitutionAddress": "Chemin_Queen-Mary_4565_Montreal_District_CA_H3W_1W5",
  "InstitutionName": "IUGM",
  "InstitutionalDepartmentName": "Department",
  "MRAcquisitionType": "2D",
  "MagneticFieldStrength": 3,
  "Manufacturer": "Siemens",
  "ManufacturersModelName": "Prisma_fit",
  "Modality": "MR",
  "MultibandAccelerationFactor": 4,
  "PartialFourier": 1,
  "PatientPosition": "HFS",
  "PercentPhaseFOV": 100,
  "PercentSampling": 100,
  "PhaseEncodingDirection": "j",
  "PhaseEncodingSteps": 104,
  "PhaseResolution": 1,
  "PixelBandwidth": 2290,
  "ProcedureStepDescription": "games_shinobi",
  "ProtocolName": "func_task-shinobi_run-3",
  "PulseSequenceDetails": "%CustomerSeq%_cmrr_mbep2d_bold",
  "ReceiveCoilActiveElements": "HC1-7;NC1,2",
  "ReceiveCoilName": "HeadNeck_64",
  "ReconMatrixPE": 104,
  "RepetitionTime": 1.49,
  "SAR": 0.0357003,
  "ScanOptions": "FS",
  "ScanningSequence": "EP",
  "SequenceName": "epfid2d1_104",
  "SequenceVariant": "SK_SS",
  "SeriesDescription": "func_task-shinobi_run-3",
  "SeriesNumber": 13,
  "ShimSetting": [633, -7209, -8833, 673, 85, -21, 51, -28],
  "SliceThickness": 2,
  "SliceTiming": [0, 0.7825, 0.0975, 0.8825, 0.195, 0.98, 0.2925, 1.0775, 0.3925, 1.175, 0.49, 1.2725, 0.5875, 1.3725, 0.685, 0, 0.7825, 0.0975, 0.8825, 0.195, 0.98, 0.2925, 1.0775, 0.3925, 1.175, 0.49, 1.2725, 0.5875, 1.3725, 0.685, 0, 0.7825, 0.0975, 0.8825, 0.195, 0.98, 0.2925, 1.0775, 0.3925, 1.175, 0.49, 1.2725, 0.5875, 1.3725, 0.685, 0, 0.7825, 0.0975, 0.8825, 0.195, 0.98, 0.2925, 1.0775, 0.3925, 1.175, 0.49, 1.2725, 0.5875, 1.3725, 0.685],
  "SoftwareVersions": "syngo_MR_E11",
  "SpacingBetweenSlices": 2,
  "StationName": "MRC35049",
  "TaskName": "shinobi",
  "TotalReadoutTime": 0.0576811,
  "TxRefAmp": 242.012,
  "WipMemBlock": "f1886925-990e-4bfe-8f1d-61d8d830d564||Sequence: R016 ve11c/master r/e634e98; Dec 19 2017 11:00:25 by eja",
  "dcmmeta_affine": [
    [-1.9950944185256958, -0.11398820579051971, 0.08127115666866302, 109.88448333740234],
    [-0.13221199810504913, 1.9158943891525269, -0.5584518909454346, -57.92226028442383],
    [0.04602501168847084, 0.5624546408653259, 1.91873037815094, -55.14513397216797],
    [0.0, 0.0, 0.0, 1.0]
],
  "dcmmeta_reorient_transform": [
    [0.0, -1.0, 0.0, 103.0],
    [1.0, 0.0, 0.0, 0.0],
    [0.0, 0.0, 1.0, 0.0],
    [0.0, 0.0, 0.0, 1.0]
],
  "dcmmeta_shape": [104, 104, 60, 420],
  "dcmmeta_slice_dim": 2,
  "dcmmeta_version": 0.6,
  "global": {
    "const": {
      "AcquisitionMatrix": [104, 0, 0, 104],
      "AngioFlag": "N",
      "BitsAllocated": 16,
      "BitsStored": 16,
      "BodyPartExamined": "BRAIN",
      "Columns": 832,
      "EchoNumbers": 1,
      "EchoTime": 37.0,
      "EchoTrainLength": 104,
      "FlipAngle": 52.0,
      "HighBit": 15,
      "ImageOrientationPatient": [0.99754720286489, 0.06610599565731, 0.02301250517837, -0.0569941040892, 0.95794721383238, -0.2812273237256],
      "ImagePositionPatient": [-782.86635518235, -884.92560037355, 190.76808436269],
      "ImageType": [
        "ORIGINAL",
        "PRIMARY",
        "M",
        "MB",
        "ND",
        "MOSAIC"
],
      "ImagedNucleus": "1H",
      "ImagingFrequency": 123.259076,
      "InPlanePhaseEncodingDirection": "COL",
      "MRAcquisitionType": "2D",
      "MagneticFieldStrength": 3.0,
      "Manufacturer": "SIEMENS",
      "ManufacturerModelName": "Prisma_fit",
      "Modality": "MR",
      "NumberOfAverages": 1.0,
      "NumberOfPhaseEncodingSteps": 104,
      "PercentPhaseFieldOfView": 100.0,
      "PercentSampling": 100.0,
      "PerformedProcedureStepStartTime": "150431.617000",
      "PhotometricInterpretation": "MONOCHROME2",
      "PixelBandwidth": 2290.0,
      "PixelRepresentation": 0,
      "PixelSpacing": [2.0, 2.0],
      "ProtocolName": "func_task-shinobi_run-3",
      "RepetitionTime": 1490.0,
      "Rows": 832,
      "SAR": 0.03570028795548,
      "SamplesPerPixel": 1,
      "ScanOptions": "FS",
      "ScanningSequence": "EP",
      "SequenceName": "epfid2d1_104",
      "SequenceVariant": [
        "SK",
        "SS"
],
      "SeriesDescription": "func_task-shinobi_run-3",
      "SeriesNumber": 13,
      "SeriesTime": "153955.033000",
      "SliceLocation": -32.265703320266,
      "SliceThickness": 2.0,
      "SmallestImagePixelValue": 0,
      "SoftwareVersions": "syngo MR E11",
      "SpacingBetweenSlices": 1.9999999878141,
      "SpecificCharacterSet": "ISO_IR 100",
      "StudyID": "1",
      "StudyTime": "150431.538000",
      "TransmitCoilName": "Body",
      "VariableFlipAngleFlag": "N",
      "WindowCenterWidthExplanation": "Algo1",
      "dBdt": 0.0},
    "slices": {}
  },
  "time": {
    "samples": {
      "AcquisitionNumber": [1, 2, 3, 4, 5, 6, 7, 8, 9, 10, 11, 12, 13, 14, 15, 16, 17, 18, 19, 20, 21, 22, 23, 24, 25, 26, 27, 28, 29, 30, 31, 32, 33, 34, 35, 36, 37, 38, 39, 40, 41, 42, 43, 44, 45, 46, 47, 48, 49, 50, 51, 52, 53, 54, 55, 56, 57, 58, 59, 60, 61, 62, 63, 64, 65, 66, 67, 68, 69, 70, 71, 72, 73, 74, 75, 76, 77, 78, 79, 80, 81, 82, 83, 84, 85, 86, 87, 88, 89, 90, 91, 92, 93, 94, 95, 96, 97, 98, 99, 100, 101, 102, 103, 104, 105, 106, 107, 108, 109, 110, 111, 112, 113, 114, 115, 116, 117, 118, 119, 120, 121, 122, 123, 124, 125, 126, 127, 128, 129, 130, 131, 132, 133, 134, 135, 136, 137, 138, 139, 140, 141, 142, 143, 144, 145, 146, 147, 148, 149, 150, 151, 152, 153, 154, 155, 156, 157, 158, 159, 160, 161, 162, 163, 164, 165, 166, 167, 168, 169, 170, 171, 172, 173, 174, 175, 176, 177, 178, 179, 180, 181, 182, 183, 184, 185, 186, 187, 188, 189, 190, 191, 192, 193, 194, 195, 196, 197, 198, 199, 200, 201, 202, 203, 204, 205, 206, 207, 208, 209, 210, 211, 212, 213, 214, 215, 216, 217, 218, 219, 220, 221, 222, 223, 224, 225, 226, 227, 228, 229, 230, 231, 232, 233, 234, 235, 236, 237, 238, 239, 240, 241, 242, 243, 244, 245, 246, 247, 248, 249, 250, 251, 252, 253, 254, 255, 256, 257, 258, 259, 260, 261, 262, 263, 264, 265, 266, 267, 268, 269, 270, 271, 272, 273, 274, 275, 276, 277, 278, 279, 280, 281, 282, 283, 284, 285, 286, 287, 288, 289, 290, 291, 292, 293, 294, 295, 296, 297, 298, 299, 300, 301, 302, 303, 304, 305, 306, 307, 308, 309, 310, 311, 312, 313, 314, 315, 316, 317, 318, 319, 320, 321, 322, 323, 324, 325, 326, 327, 328, 329, 330, 331, 332, 333, 334, 335, 336, 337, 338, 339, 340, 341, 342, 343, 344, 345, 346, 347, 348, 349, 350, 351, 352, 353, 354, 355, 356, 357, 358, 359, 360, 361, 362, 363, 364, 365, 366, 367, 368, 369, 370, 371, 372, 373, 374, 375, 376, 377, 378, 379, 380, 381, 382, 383, 384, 385, 386, 387, 388, 389, 390, 391, 392, 393, 394, 395, 396, 397, 398, 399, 400, 401, 402, 403, 404, 405, 406, 407, 408, 409, 410, 411, 412, 413, 414, 415, 416, 417, 418, 419, 420],
      "AcquisitionTime": ["153851.155000", "153852.645000", "153854.135000", "153855.625000", "153857.115000", "153858.605000", "153900.095000", "153901.585000", "153903.075000", "153904.565000", "153906.055000", "153907.545000", "153909.035000", "153910.525000", "153912.015000", "153913.505000", "153914.995000", "153916.485000", "153917.975000", "153919.465000", "153920.955000", "153922.445000", "153923.935000", "153925.425000", "153926.915000", "153928.405000", "153929.895000", "153931.385000", "153932.875000", "153934.365000", "153935.855000", "153937.345000", "153938.835000", "153940.325000", "153941.815000", "153943.305000", "153944.795000", "153946.285000", "153947.775000", "153949.265000", "153950.755000", "153952.245000", "153953.735000", "153955.225000", "153956.715000", "153958.205000", "153959.695000", "154001.185000", "154002.675000", "154004.165000", "154005.655000", "154007.145000", "154008.635000", "154010.125000", "154011.615000", "154013.105000", "154014.595000", "154016.085000", "154017.575000", "154019.065000", "154020.555000", "154022.045000", "154023.535000", "154025.025000", "154026.515000", "154028.005000", "154029.495000", "154030.985000", "154032.475000", "154033.965000", "154035.455000", "154036.945000", "154038.435000", "154039.925000", "154041.415000", "154042.905000", "154044.395000", "154045.885000", "154047.375000", "154048.865000", "154050.355000", "154051.845000", "154053.335000", "154054.825000", "154056.315000", "154057.805000", "154059.295000", "154100.785000", "154102.275000", "154103.765000", "154105.255000", "154106.745000", "154108.235000", "154109.725000", "154111.215000", "154112.705000", "154114.195000", "154115.685000", "154117.175000", "154118.665000", "154120.155000", "154121.645000", "154123.135000", "154124.625000", "154126.115000", "154127.605000", "154129.095000", "154130.585000", "154132.075000", "154133.565000", "154135.055000", "154136.545000", "154138.035000", "154139.525000", "154141.015000", "154142.505000", "154143.995000", "154145.485000", "154146.975000", "154148.465000", "154149.955000", "154151.445000", "154152.935000", "154154.425000", "154155.915000", "154157.405000", "154158.895000", "154200.385000", "154201.875000", "154203.365000", "154204.855000", "154206.345000", "154207.835000", "154209.325000", "154210.815000", "154212.305000", "154213.795000", "154215.285000", "154216.775000", "154218.265000", "154219.755000", "154221.245000", "154222.735000", "154224.225000", "154225.715000", "154227.205000", "154228.695000", "154230.185000", "154231.675000", "154233.165000", "154234.655000", "154236.145000", "154237.635000", "154239.125000", "154240.615000", "154242.105000", "154243.595000", "154245.085000", "154246.575000", "154248.065000", "154249.555000", "154251.045000", "154252.535000", "154254.025000", "154255.515000", "154257.005000", "154258.495000", "154259.985000", "154301.475000", "154302.965000", "154304.455000", "154305.945000", "154307.435000", "154308.925000", "154310.415000", "154311.905000", "154313.395000", "154314.885000", "154316.375000", "154317.865000", "154319.355000", "154320.845000", "154322.335000", "154323.825000", "154325.315000", "154326.805000", "154328.295000", "154329.785000", "154331.275000", "154332.765000", "154334.255000", "154335.745000", "154337.235000", "154338.725000", "154340.215000", "154341.705000", "154343.195000", "154344.685000", "154346.175000", "154347.665000", "154349.155000", "154350.645000", "154352.135000", "154353.625000", "154355.115000", "154356.605000", "154358.095000", "154359.585000", "154401.075000", "154402.565000", "154404.055000", "154405.545000", "154407.035000", "154408.525000", "154410.015000", "154411.505000", "154412.995000", "154414.485000", "154415.975000", "154417.465000", "154418.955000", "154420.445000", "154421.935000", "154423.425000", "154424.915000", "154426.405000", "154427.895000", "154429.385000", "154430.875000", "154432.365000", "154433.855000", "154435.345000", "154436.835000", "154438.325000", "154439.815000", "154441.305000", "154442.795000", "154444.285000", "154445.775000", "154447.265000", "154448.755000", "154450.245000", "154451.735000", "154453.225000", "154454.715000", "154456.205000", "154457.695000", "154459.185000", "154500.675000", "154502.165000", "154503.655000", "154505.145000", "154506.635000", "154508.125000", "154509.615000", "154511.105000", "154512.595000", "154514.085000", "154515.575000", "154517.065000", "154518.555000", "154520.045000", "154521.535000", "154523.025000", "154524.515000", "154526.005000", "154527.495000", "154528.985000", "154530.475000", "154531.965000", "154533.455000", "154534.945000", "154536.435000", "154537.925000", "154539.415000", "154540.905000", "154542.395000", "154543.885000", "154545.375000", "154546.865000", "154548.355000", "154549.845000", "154551.335000", "154552.825000", "154554.315000", "154555.805000", "154557.295000", "154558.785000", "154600.275000", "154601.765000", "154603.255000", "154604.745000", "154606.235000", "154607.725000", "154609.215000", "154610.705000", "154612.195000", "154613.685000", "154615.175000", "154616.665000", "154618.155000", "154619.645000", "154621.135000", "154622.625000", "154624.115000", "154625.605000", "154627.095000", "154628.585000", "154630.075000", "154631.565000", "154633.055000", "154634.545000", "154636.035000", "154637.525000", "154639.015000", "154640.505000", "154641.995000", "154643.485000", "154644.975000", "154646.465000", "154647.955000", "154649.445000", "154650.935000", "154652.425000", "154653.915000", "154655.405000", "154656.895000", "154658.385000", "154659.875000", "154701.365000", "154702.855000", "154704.345000", "154705.835000", "154707.325000", "154708.815000", "154710.305000", "154711.795000", "154713.285000", "154714.775000", "154716.265000", "154717.755000", "154719.245000", "154720.735000", "154722.225000", "154723.715000", "154725.205000", "154726.695000", "154728.185000", "154729.675000", "154731.165000", "154732.655000", "154734.145000", "154735.635000", "154737.125000", "154738.615000", "154740.105000", "154741.595000", "154743.085000", "154744.575000", "154746.065000", "154747.555000", "154749.045000", "154750.535000", "154752.025000", "154753.515000", "154755.005000", "154756.495000", "154757.985000", "154759.475000", "154800.965000", "154802.455000", "154803.945000", "154805.435000", "154806.925000", "154808.415000", "154809.905000", "154811.395000", "154812.885000", "154814.375000", "154815.865000", "154817.355000", "154818.845000", "154820.335000", "154821.825000", "154823.315000", "154824.805000", "154826.295000", "154827.785000", "154829.275000", "154830.765000", "154832.255000", "154833.745000", "154835.235000", "154836.725000", "154838.215000", "154839.705000", "154841.195000", "154842.685000", "154844.175000", "154845.665000", "154847.155000", "154848.645000", "154850.135000", "154851.625000", "154853.115000", "154854.605000", "154856.095000", "154857.585000", "154859.075000", "154900.565000", "154902.055000", "154903.545000", "154905.035000", "154906.525000", "154908.015000", "154909.505000", "154910.995000", "154912.485000", "154913.975000", "154915.465000"],
      "ContentTime": ["153955.036000", "153955.039000", "153955.043000", "153955.046000", "153955.049000", "153955.051000", "153955.059000", "153955.062000", "153955.065000", "153955.068000", "154015.006000", "154015.009000", "154015.012000", "154015.015000", "154015.018000", "154015.021000", "154015.024000", "154015.027000", "154015.034000", "154015.037000", "154015.040000", "154015.043000", "154015.046000", "154015.049000", "154015.052000", "154015.055000", "154015.058000", "154015.061000", "154015.064000", "154015.067000", "154035.006000", "154035.009000", "154035.012000", "154035.015000", "154035.018000", "154035.021000", "154035.024000", "154035.027000", "154035.030000", "154035.033000", "154035.036000", "154035.039000", "154035.042000", "154035.045000", "154035.047000", "154035.051000", "154035.053000", "154035.056000", "154035.059000", "154035.066000", "154055.006000", "154055.009000", "154055.012000", "154055.015000", "154055.018000", "154055.021000", "154055.024000", "154055.027000", "154055.030000", "154055.033000", "154055.036000", "154055.039000", "154055.042000", "154055.044000", "154055.047000", "154055.051000", "154055.053000", "154055.056000", "154055.059000", "154055.062000", "154115.005000", "154115.008000", "154115.011000", "154115.014000", "154115.017000", "154115.020000", "154115.023000", "154115.026000", "154115.035000", "154115.037000", "154115.040000", "154115.043000", "154115.046000", "154115.049000", "154115.052000", "154115.055000", "154115.058000", "154115.061000", "154115.064000", "154115.067000", "154155.005000", "154155.008000", "154155.011000", "154155.014000", "154155.017000", "154155.020000", "154155.023000", "154155.026000", "154155.030000", "154155.033000", "154155.036000", "154155.039000", "154155.042000", "154155.058000", "154155.061000", "154155.064000", "154155.067000", "154155.070000", "154155.073000", "154155.076000", "154155.079000", "154155.082000", "154155.085000", "154155.089000", "154155.092000", "154155.095000", "154155.098000", "154155.101000", "154155.104000", "154155.107000", "154155.110000", "154155.113000", "154235.006000", "154235.009000", "154235.012000", "154235.015000", "154235.018000", "154235.021000", "154235.024000", "154235.027000", "154235.030000", "154235.033000", "154235.036000", "154235.039000", "154235.042000", "154235.045000", "154235.048000", "154235.051000", "154235.054000", "154235.057000", "154235.060000", "154235.063000", "154235.066000", "154235.069000", "154235.072000", "154235.075000", "154235.078000", "154235.081000", "154235.084000", "154315.006000", "154315.009000", "154315.012000", "154315.015000", "154315.018000", "154315.021000", "154315.024000", "154315.027000", "154315.030000", "154315.033000", "154315.036000", "154315.039000", "154315.042000", "154315.045000", "154315.048000", "154315.051000", "154315.054000", "154315.057000", "154315.060000", "154315.063000", "154315.066000", "154315.069000", "154315.072000", "154315.075000", "154315.078000", "154315.081000", "154315.084000", "154355.005000", "154355.008000", "154355.011000", "154355.014000", "154355.017000", "154355.020000", "154355.023000", "154355.026000", "154355.029000", "154355.032000", "154355.035000", "154355.038000", "154355.041000", "154355.044000", "154355.047000", "154355.050000", "154355.053000", "154355.056000", "154355.059000", "154355.062000", "154355.065000", "154355.068000", "154355.071000", "154355.074000", "154355.077000", "154355.080000", "154355.083000", "154435.005000", "154435.008000", "154435.011000", "154435.014000", "154435.017000", "154435.020000", "154435.023000", "154435.026000", "154435.029000", "154435.032000", "154435.035000", "154435.038000", "154435.041000", "154435.044000", "154435.047000", "154435.050000", "154435.053000", "154435.056000", "154435.059000", "154435.062000", "154435.065000", "154435.068000", "154435.071000", "154435.073000", "154435.076000", "154435.079000", "154435.082000", "154515.006000", "154515.009000", "154515.012000", "154515.015000", "154515.018000", "154515.021000", "154515.024000", "154515.027000", "154515.030000", "154515.033000", "154515.036000", "154515.039000", "154515.042000", "154515.045000", "154515.048000", "154515.051000", "154515.054000", "154515.057000", "154515.060000", "154515.063000", "154515.066000", "154515.069000", "154515.072000", "154515.075000", "154515.078000", "154515.081000", "154515.084000", "154555.005000", "154555.008000", "154555.011000", "154555.014000", "154555.017000", "154555.020000", "154555.023000", "154555.026000", "154555.029000", "154555.032000", "154555.035000", "154555.038000", "154555.041000", "154555.044000", "154555.048000", "154555.051000", "154555.055000", "154555.058000", "154555.061000", "154555.064000", "154555.067000", "154555.071000", "154555.074000", "154555.077000", "154555.080000", "154555.083000", "154635.005000", "154635.008000", "154635.011000", "154635.014000", "154635.017000", "154635.020000", "154635.023000", "154635.026000", "154635.029000", "154635.032000", "154635.035000", "154635.038000", "154635.041000", "154635.044000", "154635.047000", "154635.050000", "154635.053000", "154635.070000", "154635.073000", "154635.076000", "154635.079000", "154635.082000", "154635.085000", "154635.088000", "154635.090000", "154635.093000", "154635.096000", "154715.006000", "154715.009000", "154715.012000", "154715.015000", "154715.018000", "154715.021000", "154715.024000", "154715.027000", "154715.030000", "154715.033000", "154715.036000", "154715.039000", "154715.042000", "154715.045000", "154715.048000", "154715.051000", "154715.054000", "154715.057000", "154715.060000", "154715.063000", "154715.066000", "154715.069000", "154715.072000", "154715.075000", "154715.078000", "154715.081000", "154715.084000", "154755.006000", "154755.009000", "154755.012000", "154755.015000", "154755.018000", "154755.021000", "154755.024000", "154755.027000", "154755.030000", "154755.033000", "154755.036000", "154755.039000", "154755.042000", "154755.045000", "154755.048000", "154755.051000", "154755.054000", "154755.057000", "154755.060000", "154755.063000", "154755.066000", "154755.069000", "154755.072000", "154755.075000", "154755.078000", "154755.081000", "154755.084000", "154835.005000", "154835.008000", "154835.011000", "154835.014000", "154835.017000", "154835.020000", "154835.023000", "154835.026000", "154835.029000", "154835.032000", "154835.035000", "154835.038000", "154835.041000", "154835.044000", "154835.047000", "154835.050000", "154835.053000", "154835.056000", "154835.059000", "154835.062000", "154835.065000", "154835.068000", "154835.071000", "154835.074000", "154835.077000", "154835.080000", "154835.083000", "154915.005000", "154915.008000", "154915.011000", "154915.014000", "154915.017000", "154915.020000", "154915.023000", "154915.026000", "154915.029000", "154915.032000", "154915.035000", "154915.038000", "154915.041000", "154915.044000", "154915.047000", "154915.050000", "154915.053000", "154915.056000", "154915.059000", "154915.062000", "154915.065000", "154915.068000", "154915.071000", "154915.074000", "154915.077000", "154915.080000", "154915.083000", "154918.709000", "154918.712000"],
      "InstanceCreationTime": ["153955.036000", "153955.039000", "153955.043000", "153955.046000", "153955.049000", "153955.051000", "153955.059000", "153955.062000", "153955.065000", "153955.068000", "154015.006000", "154015.009000", "154015.012000", "154015.015000", "154015.018000", "154015.021000", "154015.024000", "154015.027000", "154015.034000", "154015.037000", "154015.040000", "154015.043000", "154015.046000", "154015.049000", "154015.052000", "154015.055000", "154015.058000", "154015.061000", "154015.064000", "154015.067000", "154035.006000", "154035.009000", "154035.012000", "154035.015000", "154035.018000", "154035.021000", "154035.024000", "154035.027000", "154035.030000", "154035.033000", "154035.036000", "154035.039000", "154035.042000", "154035.045000", "154035.047000", "154035.051000", "154035.053000", "154035.056000", "154035.059000", "154035.066000", "154055.006000", "154055.009000", "154055.012000", "154055.015000", "154055.018000", "154055.021000", "154055.024000", "154055.027000", "154055.030000", "154055.033000", "154055.036000", "154055.039000", "154055.042000", "154055.044000", "154055.047000", "154055.051000", "154055.053000", "154055.056000", "154055.059000", "154055.062000", "154115.005000", "154115.008000", "154115.011000", "154115.014000", "154115.017000", "154115.020000", "154115.023000", "154115.026000", "154115.035000", "154115.037000", "154115.040000", "154115.043000", "154115.046000", "154115.049000", "154115.052000", "154115.055000", "154115.058000", "154115.061000", "154115.064000", "154115.067000", "154155.005000", "154155.008000", "154155.011000", "154155.014000", "154155.017000", "154155.020000", "154155.023000", "154155.026000", "154155.030000", "154155.033000", "154155.036000", "154155.039000", "154155.042000", "154155.058000", "154155.061000", "154155.064000", "154155.067000", "154155.070000", "154155.073000", "154155.076000", "154155.079000", "154155.082000", "154155.085000", "154155.089000", "154155.092000", "154155.095000", "154155.098000", "154155.101000", "154155.104000", "154155.107000", "154155.110000", "154155.113000", "154235.006000", "154235.009000", "154235.012000", "154235.015000", "154235.018000", "154235.021000", "154235.024000", "154235.027000", "154235.030000", "154235.033000", "154235.036000", "154235.039000", "154235.042000", "154235.045000", "154235.048000", "154235.051000", "154235.054000", "154235.057000", "154235.060000", "154235.063000", "154235.066000", "154235.069000", "154235.072000", "154235.075000", "154235.078000", "154235.081000", "154235.084000", "154315.006000", "154315.009000", "154315.012000", "154315.015000", "154315.018000", "154315.021000", "154315.024000", "154315.027000", "154315.030000", "154315.033000", "154315.036000", "154315.039000", "154315.042000", "154315.045000", "154315.048000", "154315.051000", "154315.054000", "154315.057000", "154315.060000", "154315.063000", "154315.066000", "154315.069000", "154315.072000", "154315.075000", "154315.078000", "154315.081000", "154315.084000", "154355.005000", "154355.008000", "154355.011000", "154355.014000", "154355.017000", "154355.020000", "154355.023000", "154355.026000", "154355.029000", "154355.032000", "154355.035000", "154355.038000", "154355.041000", "154355.044000", "154355.047000", "154355.050000", "154355.053000", "154355.056000", "154355.059000", "154355.062000", "154355.065000", "154355.068000", "154355.071000", "154355.074000", "154355.077000", "154355.080000", "154355.083000", "154435.005000", "154435.008000", "154435.011000", "154435.014000", "154435.017000", "154435.020000", "154435.023000", "154435.026000", "154435.029000", "154435.032000", "154435.035000", "154435.038000", "154435.041000", "154435.044000", "154435.047000", "154435.050000", "154435.053000", "154435.056000", "154435.059000", "154435.062000", "154435.065000", "154435.068000", "154435.071000", "154435.073000", "154435.076000", "154435.079000", "154435.082000", "154515.006000", "154515.009000", "154515.012000", "154515.015000", "154515.018000", "154515.021000", "154515.024000", "154515.027000", "154515.030000", "154515.033000", "154515.036000", "154515.039000", "154515.042000", "154515.045000", "154515.048000", "154515.051000", "154515.054000", "154515.057000", "154515.060000", "154515.063000", "154515.066000", "154515.069000", "154515.072000", "154515.075000", "154515.078000", "154515.081000", "154515.084000", "154555.005000", "154555.008000", "154555.011000", "154555.014000", "154555.017000", "154555.020000", "154555.023000", "154555.026000", "154555.029000", "154555.032000", "154555.035000", "154555.038000", "154555.041000", "154555.044000", "154555.048000", "154555.051000", "154555.055000", "154555.058000", "154555.061000", "154555.064000", "154555.067000", "154555.071000", "154555.074000", "154555.077000", "154555.080000", "154555.083000", "154635.005000", "154635.008000", "154635.011000", "154635.014000", "154635.017000", "154635.020000", "154635.023000", "154635.026000", "154635.029000", "154635.032000", "154635.035000", "154635.038000", "154635.041000", "154635.044000", "154635.047000", "154635.050000", "154635.053000", "154635.070000", "154635.073000", "154635.076000", "154635.079000", "154635.082000", "154635.085000", "154635.088000", "154635.090000", "154635.093000", "154635.096000", "154715.006000", "154715.009000", "154715.012000", "154715.015000", "154715.018000", "154715.021000", "154715.024000", "154715.027000", "154715.030000", "154715.033000", "154715.036000", "154715.039000", "154715.042000", "154715.045000", "154715.048000", "154715.051000", "154715.054000", "154715.057000", "154715.060000", "154715.063000", "154715.066000", "154715.069000", "154715.072000", "154715.075000", "154715.078000", "154715.081000", "154715.084000", "154755.006000", "154755.009000", "154755.012000", "154755.015000", "154755.018000", "154755.021000", "154755.024000", "154755.027000", "154755.030000", "154755.033000", "154755.036000", "154755.039000", "154755.042000", "154755.045000", "154755.048000", "154755.051000", "154755.054000", "154755.057000", "154755.060000", "154755.063000", "154755.066000", "154755.069000", "154755.072000", "154755.075000", "154755.078000", "154755.081000", "154755.084000", "154835.005000", "154835.008000", "154835.011000", "154835.014000", "154835.017000", "154835.020000", "154835.023000", "154835.026000", "154835.029000", "154835.032000", "154835.035000", "154835.038000", "154835.041000", "154835.044000", "154835.047000", "154835.050000", "154835.053000", "154835.056000", "154835.059000", "154835.062000", "154835.065000", "154835.068000", "154835.071000", "154835.074000", "154835.077000", "154835.080000", "154835.083000", "154915.005000", "154915.008000", "154915.011000", "154915.014000", "154915.017000", "154915.020000", "154915.023000", "154915.026000", "154915.029000", "154915.032000", "154915.035000", "154915.038000", "154915.041000", "154915.044000", "154915.047000", "154915.050000", "154915.053000", "154915.056000", "154915.059000", "154915.062000", "154915.065000", "154915.068000", "154915.071000", "154915.074000", "154915.077000", "154915.080000", "154915.083000", "154918.709000", "154918.712000"],
