{
  "AcquisitionMatrixPE": 104,
  "AcquisitionNumber": 1,
  "AcquisitionTime": "15:13:32.407500",
  "BandwidthPerPixelPhaseEncode": 17.17,
  "BaseResolution": 104,
  "BodyPartExamined": "BRAIN",
  "CoilString": "HC1-7;NC1_2",
  "ConsistencyInfo": "N4_VE11C_LATEST_20160120",
  "ConversionSoftware": "dcm2niix",
  "ConversionSoftwareVersion": "v1.0.20200427",
  "DerivedVendorReportedEchoSpacing": 0.000560011,
  "DeviceSerialNumber": "167006",
  "DwellTime": 2.1e-06,
  "EchoTime": 0.037,
  "EchoTrainLength": 104,
  "EffectiveEchoSpacing": 0.000560011,
  "FlipAngle": 52,
  "ImageComments": "Unaliased_MB4_PE3_LB",
  "ImageOrientationPatientDICOM": [0.997547, 0.066106, 0.0230125, -0.0569941, 0.957947, -0.281227],
  "ImageType": [
    "ORIGINAL",
    "PRIMARY",
    "M",
    "MB",
    "ND",
    "MOSAIC"
],
  "ImagingFrequency": 123.259,
  "InPlanePhaseEncodingDirectionDICOM": "COL",
  "InstitutionAddress": "Chemin_Queen-Mary_4565_Montreal_District_CA_H3W_1W5",
  "InstitutionName": "IUGM",
  "InstitutionalDepartmentName": "Department",
  "MRAcquisitionType": "2D",
  "MagneticFieldStrength": 3,
  "Manufacturer": "Siemens",
  "ManufacturersModelName": "Prisma_fit",
  "Modality": "MR",
  "MultibandAccelerationFactor": 4,
  "PartialFourier": 1,
  "PatientPosition": "HFS",
  "PercentPhaseFOV": 100,
  "PercentSampling": 100,
  "PhaseEncodingDirection": "j",
  "PhaseEncodingSteps": 104,
  "PhaseResolution": 1,
  "PixelBandwidth": 2290,
  "ProcedureStepDescription": "games_shinobi",
  "ProtocolName": "func_task-shinobi_run-1",
  "PulseSequenceDetails": "%CustomerSeq%_cmrr_mbep2d_bold",
  "ReceiveCoilActiveElements": "HC1-7;NC1,2",
  "ReceiveCoilName": "HeadNeck_64",
  "ReconMatrixPE": 104,
  "RepetitionTime": 1.49,
  "SAR": 0.0357003,
  "ScanOptions": "FS",
  "ScanningSequence": "EP",
  "SequenceName": "epfid2d1_104",
  "SequenceVariant": "SK_SS",
  "SeriesDescription": "func_task-shinobi_run-1",
  "SeriesNumber": 9,
  "ShimSetting": [633, -7209, -8833, 673, 85, -21, 51, -28],
  "SliceThickness": 2,
  "SliceTiming": [0, 0.7825, 0.0975, 0.8825, 0.195, 0.98, 0.2925, 1.0775, 0.3925, 1.175, 0.49, 1.2725, 0.5875, 1.3725, 0.685, 0, 0.7825, 0.0975, 0.8825, 0.195, 0.98, 0.2925, 1.0775, 0.3925, 1.175, 0.49, 1.2725, 0.5875, 1.3725, 0.685, 0, 0.7825, 0.0975, 0.8825, 0.195, 0.98, 0.2925, 1.0775, 0.3925, 1.175, 0.49, 1.2725, 0.5875, 1.3725, 0.685, 0, 0.7825, 0.0975, 0.8825, 0.195, 0.98, 0.2925, 1.0775, 0.3925, 1.175, 0.49, 1.2725, 0.5875, 1.3725, 0.685],
  "SoftwareVersions": "syngo_MR_E11",
  "SpacingBetweenSlices": 2,
  "StationName": "MRC35049",
  "TaskName": "shinobi",
  "TotalReadoutTime": 0.0576811,
  "TxRefAmp": 242.012,
  "WipMemBlock": "d97b1e52-9647-48c3-9030-9d02e5cf5c45||Sequence: R016 ve11c/master r/e634e98; Dec 19 2017 11:00:25 by eja",
  "dcmmeta_affine": [
    [-1.9950944185256958, -0.11398820579051971, 0.08127115666866302, 109.88448333740234],
    [-0.13221199810504913, 1.9158943891525269, -0.5584518909454346, -57.92226028442383],
    [0.04602501168847084, 0.5624546408653259, 1.91873037815094, -55.14513397216797],
    [0.0, 0.0, 0.0, 1.0]
],
  "dcmmeta_reorient_transform": [
    [0.0, -1.0, 0.0, 103.0],
    [1.0, 0.0, 0.0, 0.0],
    [0.0, 0.0, 1.0, 0.0],
    [0.0, 0.0, 0.0, 1.0]
],
  "dcmmeta_shape": [104, 104, 60, 451],
  "dcmmeta_slice_dim": 2,
  "dcmmeta_version": 0.6,
  "global": {
    "const": {
      "AcquisitionMatrix": [104, 0, 0, 104],
      "AngioFlag": "N",
      "BitsAllocated": 16,
      "BitsStored": 16,
      "BodyPartExamined": "BRAIN",
      "Columns": 832,
      "EchoNumbers": 1,
      "EchoTime": 37.0,
      "EchoTrainLength": 104,
      "FlipAngle": 52.0,
      "HighBit": 15,
      "ImageOrientationPatient": [0.99754720286489, 0.06610599565731, 0.02301250517837, -0.0569941040892, 0.95794721383238, -0.2812273237256],
      "ImagePositionPatient": [-782.86635518235, -884.92560037355, 190.76808436269],
      "ImageType": [
        "ORIGINAL",
        "PRIMARY",
        "M",
        "MB",
        "ND",
        "MOSAIC"
],
      "ImagedNucleus": "1H",
      "ImagingFrequency": 123.259064,
      "InPlanePhaseEncodingDirection": "COL",
      "MRAcquisitionType": "2D",
      "MagneticFieldStrength": 3.0,
      "Manufacturer": "SIEMENS",
      "ManufacturerModelName": "Prisma_fit",
      "Modality": "MR",
      "NumberOfAverages": 1.0,
      "NumberOfPhaseEncodingSteps": 104,
      "PercentPhaseFieldOfView": 100.0,
      "PercentSampling": 100.0,
      "PerformedProcedureStepStartTime": "150431.617000",
      "PhotometricInterpretation": "MONOCHROME2",
      "PixelBandwidth": 2290.0,
      "PixelRepresentation": 0,
      "PixelSpacing": [2.0, 2.0],
      "ProtocolName": "func_task-shinobi_run-1",
      "RepetitionTime": 1490.0,
      "Rows": 832,
      "SAR": 0.03570028795548,
      "SamplesPerPixel": 1,
      "ScanOptions": "FS",
      "ScanningSequence": "EP",
      "SequenceName": "epfid2d1_104",
      "SequenceVariant": [
        "SK",
        "SS"
],
      "SeriesDescription": "func_task-shinobi_run-1",
      "SeriesNumber": 9,
      "SeriesTime": "151453.461000",
      "SliceLocation": -32.265703320266,
      "SliceThickness": 2.0,
      "SmallestImagePixelValue": 0,
      "SoftwareVersions": "syngo MR E11",
      "SpacingBetweenSlices": 1.9999999878141,
      "SpecificCharacterSet": "ISO_IR 100",
      "StudyID": "1",
      "StudyTime": "150431.538000",
      "TransmitCoilName": "Body",
      "VariableFlipAngleFlag": "N",
      "WindowCenterWidthExplanation": "Algo1",
      "dBdt": 0.0},
    "slices": {}
  },
  "time": {
    "samples": {
      "AcquisitionNumber": [1, 2, 3, 4, 5, 6, 7, 8, 9, 10, 11, 12, 13, 14, 15, 16, 17, 18, 19, 20, 21, 22, 23, 24, 25, 26, 27, 28, 29, 30, 31, 32, 33, 34, 35, 36, 37, 38, 39, 40, 41, 42, 43, 44, 45, 46, 47, 48, 49, 50, 51, 52, 53, 54, 55, 56, 57, 58, 59, 60, 61, 62, 63, 64, 65, 66, 67, 68, 69, 70, 71, 72, 73, 74, 75, 76, 77, 78, 79, 80, 81, 82, 83, 84, 85, 86, 87, 88, 89, 90, 91, 92, 93, 94, 95, 96, 97, 98, 99, 100, 101, 102, 103, 104, 105, 106, 107, 108, 109, 110, 111, 112, 113, 114, 115, 116, 117, 118, 119, 120, 121, 122, 123, 124, 125, 126, 127, 128, 129, 130, 131, 132, 133, 134, 135, 136, 137, 138, 139, 140, 141, 142, 143, 144, 145, 146, 147, 148, 149, 150, 151, 152, 153, 154, 155, 156, 157, 158, 159, 160, 161, 162, 163, 164, 165, 166, 167, 168, 169, 170, 171, 172, 173, 174, 175, 176, 177, 178, 179, 180, 181, 182, 183, 184, 185, 186, 187, 188, 189, 190, 191, 192, 193, 194, 195, 196, 197, 198, 199, 200, 201, 202, 203, 204, 205, 206, 207, 208, 209, 210, 211, 212, 213, 214, 215, 216, 217, 218, 219, 220, 221, 222, 223, 224, 225, 226, 227, 228, 229, 230, 231, 232, 233, 234, 235, 236, 237, 238, 239, 240, 241, 242, 243, 244, 245, 246, 247, 248, 249, 250, 251, 252, 253, 254, 255, 256, 257, 258, 259, 260, 261, 262, 263, 264, 265, 266, 267, 268, 269, 270, 271, 272, 273, 274, 275, 276, 277, 278, 279, 280, 281, 282, 283, 284, 285, 286, 287, 288, 289, 290, 291, 292, 293, 294, 295, 296, 297, 298, 299, 300, 301, 302, 303, 304, 305, 306, 307, 308, 309, 310, 311, 312, 313, 314, 315, 316, 317, 318, 319, 320, 321, 322, 323, 324, 325, 326, 327, 328, 329, 330, 331, 332, 333, 334, 335, 336, 337, 338, 339, 340, 341, 342, 343, 344, 345, 346, 347, 348, 349, 350, 351, 352, 353, 354, 355, 356, 357, 358, 359, 360, 361, 362, 363, 364, 365, 366, 367, 368, 369, 370, 371, 372, 373, 374, 375, 376, 377, 378, 379, 380, 381, 382, 383, 384, 385, 386, 387, 388, 389, 390, 391, 392, 393, 394, 395, 396, 397, 398, 399, 400, 401, 402, 403, 404, 405, 406, 407, 408, 409, 410, 411, 412, 413, 414, 415, 416, 417, 418, 419, 420, 421, 422, 423, 424, 425, 426, 427, 428, 429, 430, 431, 432, 433, 434, 435, 436, 437, 438, 439, 440, 441, 442, 443, 444, 445, 446, 447, 448, 449, 450, 451],
      "AcquisitionTime": ["151332.407500", "151333.897500", "151335.387500", "151336.877500", "151338.367500", "151339.857500", "151341.347500", "151342.837500", "151344.327500", "151345.817500", "151347.307500", "151348.797500", "151350.287500", "151351.777500", "151353.267500", "151354.757500", "151356.247500", "151357.737500", "151359.227500", "151400.717500", "151402.207500", "151403.697500", "151405.187500", "151406.677500", "151408.167500", "151409.657500", "151411.147500", "151412.637500", "151414.127500", "151415.617500", "151417.107500", "151418.597500", "151420.087500", "151421.577500", "151423.067500", "151424.557500", "151426.047500", "151427.537500", "151429.027500", "151430.517500", "151432.007500", "151433.497500", "151434.987500", "151436.477500", "151437.967500", "151439.457500", "151440.947500", "151442.437500", "151443.927500", "151445.417500", "151446.907500", "151448.397500", "151449.887500", "151451.377500", "151452.867500", "151454.357500", "151455.847500", "151457.337500", "151458.827500", "151500.317500", "151501.807500", "151503.297500", "151504.787500", "151506.277500", "151507.767500", "151509.257500", "151510.747500", "151512.237500", "151513.727500", "151515.217500", "151516.707500", "151518.197500", "151519.687500", "151521.177500", "151522.667500", "151524.157500", "151525.647500", "151527.137500", "151528.627500", "151530.117500", "151531.607500", "151533.097500", "151534.587500", "151536.077500", "151537.567500", "151539.057500", "151540.547500", "151542.037500", "151543.527500", "151545.017500", "151546.507500", "151547.997500", "151549.487500", "151550.977500", "151552.467500", "151553.957500", "151555.447500", "151556.937500", "151558.427500", "151559.917500", "151601.407500", "151602.897500", "151604.387500", "151605.877500", "151607.367500", "151608.857500", "151610.347500", "151611.837500", "151613.327500", "151614.817500", "151616.307500", "151617.797500", "151619.287500", "151620.777500", "151622.267500", "151623.757500", "151625.247500", "151626.737500", "151628.227500", "151629.717500", "151631.207500", "151632.697500", "151634.187500", "151635.677500", "151637.167500", "151638.657500", "151640.147500", "151641.637500", "151643.127500", "151644.617500", "151646.107500", "151647.597500", "151649.087500", "151650.577500", "151652.067500", "151653.557500", "151655.047500", "151656.537500", "151658.027500", "151659.517500", "151701.007500", "151702.497500", "151703.987500", "151705.477500", "151706.967500", "151708.457500", "151709.947500", "151711.437500", "151712.927500", "151714.417500", "151715.907500", "151717.397500", "151718.887500", "151720.377500", "151721.867500", "151723.357500", "151724.847500", "151726.337500", "151727.827500", "151729.317500", "151730.807500", "151732.297500", "151733.787500", "151735.277500", "151736.767500", "151738.257500", "151739.747500", "151741.237500", "151742.727500", "151744.217500", "151745.707500", "151747.197500", "151748.687500", "151750.177500", "151751.667500", "151753.157500", "151754.647500", "151756.137500", "151757.627500", "151759.117500", "151800.607500", "151802.097500", "151803.587500", "151805.077500", "151806.567500", "151808.057500", "151809.547500", "151811.037500", "151812.527500", "151814.017500", "151815.507500", "151816.997500", "151818.487500", "151819.977500", "151821.467500", "151822.957500", "151824.447500", "151825.937500", "151827.427500", "151828.917500", "151830.407500", "151831.897500", "151833.387500", "151834.877500", "151836.367500", "151837.857500", "151839.347500", "151840.837500", "151842.327500", "151843.817500", "151845.307500", "151846.797500", "151848.287500", "151849.777500", "151851.267500", "151852.757500", "151854.247500", "151855.737500", "151857.227500", "151858.717500", "151900.207500", "151901.697500", "151903.187500", "151904.677500", "151906.167500", "151907.657500", "151909.147500", "151910.637500", "151912.127500", "151913.617500", "151915.107500", "151916.597500", "151918.087500", "151919.577500", "151921.067500", "151922.557500", "151924.047500", "151925.537500", "151927.027500", "151928.517500", "151930.007500", "151931.497500", "151932.987500", "151934.477500", "151935.967500", "151937.457500", "151938.947500", "151940.437500", "151941.927500", "151943.417500", "151944.907500", "151946.397500", "151947.887500", "151949.377500", "151950.867500", "151952.357500", "151953.847500", "151955.337500", "151956.827500", "151958.317500", "151959.807500", "152001.297500", "152002.787500", "152004.277500", "152005.767500", "152007.257500", "152008.747500", "152010.237500", "152011.727500", "152013.217500", "152014.707500", "152016.197500", "152017.687500", "152019.177500", "152020.667500", "152022.157500", "152023.647500", "152025.137500", "152026.627500", "152028.117500", "152029.607500", "152031.097500", "152032.587500", "152034.077500", "152035.567500", "152037.057500", "152038.547500", "152040.037500", "152041.527500", "152043.017500", "152044.507500", "152045.997500", "152047.487500", "152048.977500", "152050.467500", "152051.957500", "152053.447500", "152054.937500", "152056.427500", "152057.917500", "152059.407500", "152100.897500", "152102.387500", "152103.877500", "152105.367500", "152106.857500", "152108.347500", "152109.837500", "152111.327500", "152112.817500", "152114.307500", "152115.797500", "152117.287500", "152118.777500", "152120.267500", "152121.757500", "152123.247500", "152124.737500", "152126.227500", "152127.717500", "152129.207500", "152130.697500", "152132.187500", "152133.677500", "152135.167500", "152136.657500", "152138.147500", "152139.637500", "152141.127500", "152142.617500", "152144.107500", "152145.597500", "152147.087500", "152148.577500", "152150.067500", "152151.557500", "152153.047500", "152154.537500", "152156.027500", "152157.517500", "152159.007500", "152200.497500", "152201.987500", "152203.477500", "152204.967500", "152206.457500", "152207.947500", "152209.437500", "152210.927500", "152212.417500", "152213.907500", "152215.397500", "152216.887500", "152218.377500", "152219.867500", "152221.357500", "152222.847500", "152224.337500", "152225.827500", "152227.317500", "152228.807500", "152230.297500", "152231.787500", "152233.277500", "152234.767500", "152236.257500", "152237.747500", "152239.237500", "152240.727500", "152242.217500", "152243.707500", "152245.197500", "152246.687500", "152248.177500", "152249.667500", "152251.157500", "152252.647500", "152254.137500", "152255.627500", "152257.117500", "152258.607500", "152300.097500", "152301.587500", "152303.077500", "152304.567500", "152306.057500", "152307.547500", "152309.037500", "152310.527500", "152312.017500", "152313.507500", "152314.997500", "152316.487500", "152317.977500", "152319.467500", "152320.957500", "152322.447500", "152323.937500", "152325.427500", "152326.917500", "152328.407500", "152329.897500", "152331.387500", "152332.877500", "152334.367500", "152335.857500", "152337.347500", "152338.837500", "152340.327500", "152341.817500", "152343.307500", "152344.797500", "152346.287500", "152347.777500", "152349.267500", "152350.757500", "152352.247500", "152353.737500", "152355.227500", "152356.717500", "152358.207500", "152359.697500", "152401.187500", "152402.677500", "152404.167500", "152405.657500", "152407.147500", "152408.637500", "152410.127500", "152411.617500", "152413.107500", "152414.597500", "152416.087500", "152417.577500", "152419.067500", "152420.557500", "152422.047500", "152423.537500", "152425.027500", "152426.517500", "152428.007500", "152429.497500", "152430.987500", "152432.477500", "152433.967500", "152435.457500", "152436.947500", "152438.437500", "152439.927500", "152441.417500", "152442.907500"],
      "ContentTime": ["151453.464000", "151453.468000", "151453.471000", "151453.474000", "151453.477000", "151453.480000", "151453.483000", "151453.486000", "151453.488000", "151453.491000", "151453.494000", "151453.497000", "151453.500000", "151453.503000", "151453.506000", "151453.509000", "151453.512000", "151453.515000", "151453.518000", "151453.521000", "151453.524000", "151453.527000", "151453.530000", "151453.533000", "151453.535000", "151453.539000", "151453.542000", "151453.544000", "151513.427000", "151513.430000", "151513.433000", "151513.436000", "151513.445000", "151513.448000", "151513.451000", "151513.454000", "151513.457000", "151513.460000", "151513.463000", "151513.466000", "151513.469000", "151513.472000", "151513.475000", "151513.477000", "151513.481000", "151513.483000", "151513.486000", "151513.489000", "151533.427000", "151533.430000", "151533.433000", "151533.436000", "151533.439000", "151533.442000", "151533.445000", "151533.448000", "151533.451000", "151533.454000", "151533.457000", "151533.459000", "151533.462000", "151533.465000", "151533.468000", "151533.471000", "151533.474000", "151533.477000", "151533.481000", "151533.484000", "151553.427000", "151553.430000", "151553.433000", "151553.436000", "151553.439000", "151553.442000", "151553.445000", "151553.448000", "151553.451000", "151553.457000", "151553.461000", "151553.463000", "151553.466000", "151553.469000", "151553.472000", "151553.475000", "151553.478000", "151553.481000", "151553.484000", "151553.487000", "151553.490000", "151633.426000", "151633.429000", "151633.432000", "151633.435000", "151633.438000", "151633.441000", "151633.444000", "151633.447000", "151633.450000", "151633.453000", "151633.456000", "151633.458000", "151633.461000", "151633.464000", "151633.467000", "151633.470000", "151633.473000", "151633.495000", "151633.498000", "151633.501000", "151633.504000", "151633.507000", "151633.510000", "151633.513000", "151633.516000", "151633.519000", "151633.522000", "151633.525000", "151633.528000", "151633.531000", "151633.534000", "151633.536000", "151713.427000", "151713.436000", "151713.439000", "151713.442000", "151713.445000", "151713.449000", "151713.452000", "151713.455000", "151713.458000", "151713.462000", "151713.465000", "151713.468000", "151713.471000", "151713.474000", "151713.476000", "151713.480000", "151713.482000", "151713.485000", "151713.488000", "151713.491000", "151713.494000", "151713.497000", "151713.500000", "151713.503000", "151713.506000", "151713.509000", "151753.427000", "151753.430000", "151753.433000", "151753.436000", "151753.439000", "151753.442000", "151753.445000", "151753.448000", "151753.451000", "151753.454000", "151753.457000", "151753.460000", "151753.462000", "151753.466000", "151753.468000", "151753.471000", "151753.474000", "151753.477000", "151753.480000", "151753.485000", "151753.488000", "151753.491000", "151753.494000", "151753.497000", "151753.500000", "151753.503000", "151753.506000", "151833.426000", "151833.429000", "151833.432000", "151833.435000", "151833.445000", "151833.448000", "151833.450000", "151833.453000", "151833.457000", "151833.460000", "151833.463000", "151833.466000", "151833.469000", "151833.472000", "151833.475000", "151833.478000", "151833.481000", "151833.484000", "151833.487000", "151833.490000", "151833.493000", "151833.496000", "151833.498000", "151833.501000", "151833.504000", "151833.507000", "151833.510000", "151913.426000", "151913.429000", "151913.432000", "151913.435000", "151913.438000", "151913.441000", "151913.444000", "151913.447000", "151913.450000", "151913.453000", "151913.456000", "151913.459000", "151913.462000", "151913.465000", "151913.468000", "151913.471000", "151913.474000", "151913.477000", "151913.480000", "151913.487000", "151913.490000", "151913.493000", "151913.496000", "151913.499000", "151913.502000", "151913.505000", "151913.508000", "151953.427000", "151953.430000", "151953.433000", "151953.436000", "151953.439000", "151953.442000", "151953.445000", "151953.448000", "151953.451000", "151953.454000", "151953.457000", "151953.460000", "151953.463000", "151953.466000", "151953.469000", "151953.472000", "151953.475000", "151953.478000", "151953.481000", "151953.484000", "151953.487000", "151953.490000", "151953.493000", "151953.496000", "151953.499000", "151953.502000", "151953.505000", "152033.427000", "152033.430000", "152033.433000", "152033.436000", "152033.439000", "152033.442000", "152033.445000", "152033.448000", "152033.451000", "152033.454000", "152033.457000", "152033.460000", "152033.463000", "152033.466000", "152033.469000", "152033.472000", "152033.475000", "152033.478000", "152033.481000", "152033.484000", "152033.487000", "152033.490000", "152033.493000", "152033.496000", "152033.499000", "152033.502000", "152033.505000", "152113.426000", "152113.429000", "152113.432000", "152113.435000", "152113.438000", "152113.441000", "152113.444000", "152113.447000", "152113.450000", "152113.453000", "152113.456000", "152113.459000", "152113.483000", "152113.486000", "152113.489000", "152113.492000", "152113.495000", "152113.498000", "152113.501000", "152113.504000", "152113.507000", "152113.510000", "152113.513000", "152113.516000", "152113.519000", "152113.522000", "152113.525000", "152153.427000", "152153.430000", "152153.433000", "152153.436000", "152153.439000", "152153.454000", "152153.457000", "152153.460000", "152153.463000", "152153.466000", "152153.469000", "152153.472000", "152153.475000", "152153.478000", "152153.481000", "152153.484000", "152153.487000", "152153.490000", "152153.493000", "152153.496000", "152153.499000", "152153.502000", "152153.505000", "152153.508000", "152153.511000", "152153.514000", "152233.427000", "152233.430000", "152233.433000", "152233.436000", "152233.439000", "152233.442000", "152233.445000", "152233.448000", "152233.451000", "152233.454000", "152233.457000", "152233.460000", "152233.463000", "152233.466000", "152233.469000", "152233.472000", "152233.475000", "152233.478000", "152233.481000", "152233.484000", "152233.487000", "152233.495000", "152233.498000", "152233.501000", "152233.504000", "152233.507000", "152233.510000", "152313.426000", "152313.429000", "152313.432000", "152313.435000", "152313.438000", "152313.441000", "152313.444000", "152313.447000", "152313.450000", "152313.453000", "152313.456000", "152313.459000", "152313.462000", "152313.465000", "152313.469000", "152313.472000", "152313.475000", "152313.478000", "152313.481000", "152313.484000", "152313.487000", "152313.490000", "152313.492000", "152313.495000", "152313.499000", "152313.501000", "152313.505000", "152353.426000", "152353.429000", "152353.432000", "152353.435000", "152353.438000", "152353.441000", "152353.444000", "152353.447000", "152353.450000", "152353.453000", "152353.456000", "152353.459000", "152353.462000", "152353.465000", "152353.468000", "152353.471000", "152353.474000", "152353.477000", "152353.480000", "152353.483000", "152353.486000", "152353.489000", "152353.492000", "152353.495000", "152353.498000", "152353.501000", "152353.504000", "152433.427000", "152433.430000", "152433.433000", "152433.436000", "152433.439000", "152433.442000", "152433.445000", "152433.448000", "152433.451000", "152433.454000", "152433.457000", "152433.460000", "152433.463000", "152433.466000", "152433.469000", "152433.472000", "152433.475000", "152433.478000", "152433.481000", "152433.484000", "152433.487000", "152433.490000", "152433.493000", "152433.496000", "152433.499000", "152433.502000", "152433.505000", "152445.165000", "152445.169000", "152445.172000", "152445.175000", "152445.178000", "152445.181000", "152445.184000", "152445.187000"],
