{
  "AcquisitionMatrixPE": 104,
  "AcquisitionNumber": 1,
  "AcquisitionTime": "15:26:22.155000",
  "BandwidthPerPixelPhaseEncode": 17.17,
  "BaseResolution": 104,
  "BodyPartExamined": "BRAIN",
  "CoilString": "HC1-7;NC1_2",
  "ConsistencyInfo": "N4_VE11C_LATEST_20160120",
  "ConversionSoftware": "dcm2niix",
  "ConversionSoftwareVersion": "v1.0.20200427",
  "DerivedVendorReportedEchoSpacing": 0.000560011,
  "DeviceSerialNumber": "167006",
  "DwellTime": 2.1e-06,
  "EchoTime": 0.037,
  "EchoTrainLength": 104,
  "EffectiveEchoSpacing": 0.000560011,
  "FlipAngle": 52,
  "ImageComments": "Unaliased_MB4_PE3_LB",
  "ImageOrientationPatientDICOM": [0.997547, 0.066106, 0.0230125, -0.0569941, 0.957947, -0.281227],
  "ImageType": [
    "ORIGINAL",
    "PRIMARY",
    "M",
    "MB",
    "ND",
    "MOSAIC"
],
  "ImagingFrequency": 123.259,
  "InPlanePhaseEncodingDirectionDICOM": "COL",
  "InstitutionAddress": "Chemin_Queen-Mary_4565_Montreal_District_CA_H3W_1W5",
  "InstitutionName": "IUGM",
  "InstitutionalDepartmentName": "Department",
  "MRAcquisitionType": "2D",
  "MagneticFieldStrength": 3,
  "Manufacturer": "Siemens",
  "ManufacturersModelName": "Prisma_fit",
  "Modality": "MR",
  "MultibandAccelerationFactor": 4,
  "PartialFourier": 1,
  "PatientPosition": "HFS",
  "PercentPhaseFOV": 100,
  "PercentSampling": 100,
  "PhaseEncodingDirection": "j",
  "PhaseEncodingSteps": 104,
  "PhaseResolution": 1,
  "PixelBandwidth": 2290,
  "ProcedureStepDescription": "games_shinobi",
  "ProtocolName": "func_task-shinobi_run-2",
  "PulseSequenceDetails": "%CustomerSeq%_cmrr_mbep2d_bold",
  "ReceiveCoilActiveElements": "HC1-7;NC1,2",
  "ReceiveCoilName": "HeadNeck_64",
  "ReconMatrixPE": 104,
  "RepetitionTime": 1.49,
  "SAR": 0.0357003,
  "ScanOptions": "FS",
  "ScanningSequence": "EP",
  "SequenceName": "epfid2d1_104",
  "SequenceVariant": "SK_SS",
  "SeriesDescription": "func_task-shinobi_run-2",
  "SeriesNumber": 11,
  "ShimSetting": [633, -7209, -8833, 673, 85, -21, 51, -28],
  "SliceThickness": 2,
  "SliceTiming": [0, 0.7825, 0.0975, 0.8825, 0.195, 0.98, 0.2925, 1.0775, 0.3925, 1.175, 0.49, 1.2725, 0.5875, 1.3725, 0.685, 0, 0.7825, 0.0975, 0.8825, 0.195, 0.98, 0.2925, 1.0775, 0.3925, 1.175, 0.49, 1.2725, 0.5875, 1.3725, 0.685, 0, 0.7825, 0.0975, 0.8825, 0.195, 0.98, 0.2925, 1.0775, 0.3925, 1.175, 0.49, 1.2725, 0.5875, 1.3725, 0.685, 0, 0.7825, 0.0975, 0.8825, 0.195, 0.98, 0.2925, 1.0775, 0.3925, 1.175, 0.49, 1.2725, 0.5875, 1.3725, 0.685],
  "SoftwareVersions": "syngo_MR_E11",
  "SpacingBetweenSlices": 2,
  "StationName": "MRC35049",
  "TaskName": "shinobi",
  "TotalReadoutTime": 0.0576811,
  "TxRefAmp": 242.012,
  "WipMemBlock": "cf6e2922-b731-40f8-a396-4410668185e4||Sequence: R016 ve11c/master r/e634e98; Dec 19 2017 11:00:25 by eja",
  "dcmmeta_affine": [
    [-1.9950944185256958, -0.11398820579051971, 0.08127115666866302, 109.88448333740234],
    [-0.13221199810504913, 1.9158943891525269, -0.5584518909454346, -57.92226028442383],
    [0.04602501168847084, 0.5624546408653259, 1.91873037815094, -55.14513397216797],
    [0.0, 0.0, 0.0, 1.0]
],
  "dcmmeta_reorient_transform": [
    [0.0, -1.0, 0.0, 103.0],
    [1.0, 0.0, 0.0, 0.0],
    [0.0, 0.0, 1.0, 0.0],
    [0.0, 0.0, 0.0, 1.0]
],
  "dcmmeta_shape": [104, 104, 60, 434],
  "dcmmeta_slice_dim": 2,
  "dcmmeta_version": 0.6,
  "global": {
    "const": {
      "AcquisitionMatrix": [104, 0, 0, 104],
      "AngioFlag": "N",
      "BitsAllocated": 16,
      "BitsStored": 16,
      "BodyPartExamined": "BRAIN",
      "Columns": 832,
      "EchoNumbers": 1,
      "EchoTime": 37.0,
      "EchoTrainLength": 104,
      "FlipAngle": 52.0,
      "HighBit": 15,
      "ImageOrientationPatient": [0.99754720286489, 0.06610599565731, 0.02301250517837, -0.0569941040892, 0.95794721383238, -0.2812273237256],
      "ImagePositionPatient": [-782.86635518235, -884.92560037355, 190.76808436269],
      "ImageType": [
        "ORIGINAL",
        "PRIMARY",
        "M",
        "MB",
        "ND",
        "MOSAIC"
],
      "ImagedNucleus": "1H",
      "ImagingFrequency": 123.259073,
      "InPlanePhaseEncodingDirection": "COL",
      "MRAcquisitionType": "2D",
      "MagneticFieldStrength": 3.0,
      "Manufacturer": "SIEMENS",
      "ManufacturerModelName": "Prisma_fit",
      "Modality": "MR",
      "NumberOfAverages": 1.0,
      "NumberOfPhaseEncodingSteps": 104,
      "PercentPhaseFieldOfView": 100.0,
      "PercentSampling": 100.0,
      "PerformedProcedureStepStartTime": "150431.617000",
      "PhotometricInterpretation": "MONOCHROME2",
      "PixelBandwidth": 2290.0,
      "PixelRepresentation": 0,
      "PixelSpacing": [2.0, 2.0],
      "ProtocolName": "func_task-shinobi_run-2",
      "RepetitionTime": 1490.0,
      "Rows": 832,
      "SAR": 0.03570028795548,
      "SamplesPerPixel": 1,
      "ScanOptions": "FS",
      "ScanningSequence": "EP",
      "SequenceName": "epfid2d1_104",
      "SequenceVariant": [
        "SK",
        "SS"
],
      "SeriesDescription": "func_task-shinobi_run-2",
      "SeriesNumber": 11,
      "SeriesTime": "152740.675000",
      "SliceLocation": -32.265703320266,
      "SliceThickness": 2.0,
      "SmallestImagePixelValue": 0,
      "SoftwareVersions": "syngo MR E11",
      "SpacingBetweenSlices": 1.9999999878141,
      "SpecificCharacterSet": "ISO_IR 100",
      "StudyID": "1",
      "StudyTime": "150431.538000",
      "TransmitCoilName": "Body",
      "VariableFlipAngleFlag": "N",
      "WindowCenterWidthExplanation": "Algo1",
      "dBdt": 0.0},
    "slices": {}
  },
  "time": {
    "samples": {
      "AcquisitionNumber": [1, 2, 3, 4, 5, 6, 7, 8, 9, 10, 11, 12, 13, 14, 15, 16, 17, 18, 19, 20, 21, 22, 23, 24, 25, 26, 27, 28, 29, 30, 31, 32, 33, 34, 35, 36, 37, 38, 39, 40, 41, 42, 43, 44, 45, 46, 47, 48, 49, 50, 51, 52, 53, 54, 55, 56, 57, 58, 59, 60, 61, 62, 63, 64, 65, 66, 67, 68, 69, 70, 71, 72, 73, 74, 75, 76, 77, 78, 79, 80, 81, 82, 83, 84, 85, 86, 87, 88, 89, 90, 91, 92, 93, 94, 95, 96, 97, 98, 99, 100, 101, 102, 103, 104, 105, 106, 107, 108, 109, 110, 111, 112, 113, 114, 115, 116, 117, 118, 119, 120, 121, 122, 123, 124, 125, 126, 127, 128, 129, 130, 131, 132, 133, 134, 135, 136, 137, 138, 139, 140, 141, 142, 143, 144, 145, 146, 147, 148, 149, 150, 151, 152, 153, 154, 155, 156, 157, 158, 159, 160, 161, 162, 163, 164, 165, 166, 167, 168, 169, 170, 171, 172, 173, 174, 175, 176, 177, 178, 179, 180, 181, 182, 183, 184, 185, 186, 187, 188, 189, 190, 191, 192, 193, 194, 195, 196, 197, 198, 199, 200, 201, 202, 203, 204, 205, 206, 207, 208, 209, 210, 211, 212, 213, 214, 215, 216, 217, 218, 219, 220, 221, 222, 223, 224, 225, 226, 227, 228, 229, 230, 231, 232, 233, 234, 235, 236, 237, 238, 239, 240, 241, 242, 243, 244, 245, 246, 247, 248, 249, 250, 251, 252, 253, 254, 255, 256, 257, 258, 259, 260, 261, 262, 263, 264, 265, 266, 267, 268, 269, 270, 271, 272, 273, 274, 275, 276, 277, 278, 279, 280, 281, 282, 283, 284, 285, 286, 287, 288, 289, 290, 291, 292, 293, 294, 295, 296, 297, 298, 299, 300, 301, 302, 303, 304, 305, 306, 307, 308, 309, 310, 311, 312, 313, 314, 315, 316, 317, 318, 319, 320, 321, 322, 323, 324, 325, 326, 327, 328, 329, 330, 331, 332, 333, 334, 335, 336, 337, 338, 339, 340, 341, 342, 343, 344, 345, 346, 347, 348, 349, 350, 351, 352, 353, 354, 355, 356, 357, 358, 359, 360, 361, 362, 363, 364, 365, 366, 367, 368, 369, 370, 371, 372, 373, 374, 375, 376, 377, 378, 379, 380, 381, 382, 383, 384, 385, 386, 387, 388, 389, 390, 391, 392, 393, 394, 395, 396, 397, 398, 399, 400, 401, 402, 403, 404, 405, 406, 407, 408, 409, 410, 411, 412, 413, 414, 415, 416, 417, 418, 419, 420, 421, 422, 423, 424, 425, 426, 427, 428, 429, 430, 431, 432, 433, 434],
      "AcquisitionTime": ["152622.155000", "152623.645000", "152625.135000", "152626.625000", "152628.115000", "152629.605000", "152631.095000", "152632.585000", "152634.075000", "152635.565000", "152637.055000", "152638.545000", "152640.035000", "152641.525000", "152643.015000", "152644.505000", "152645.995000", "152647.485000", "152648.975000", "152650.465000", "152651.955000", "152653.445000", "152654.935000", "152656.425000", "152657.915000", "152659.405000", "152700.895000", "152702.385000", "152703.875000", "152705.365000", "152706.855000", "152708.345000", "152709.835000", "152711.325000", "152712.815000", "152714.305000", "152715.795000", "152717.285000", "152718.775000", "152720.265000", "152721.755000", "152723.245000", "152724.735000", "152726.225000", "152727.715000", "152729.205000", "152730.695000", "152732.185000", "152733.675000", "152735.165000", "152736.655000", "152738.145000", "152739.635000", "152741.125000", "152742.615000", "152744.105000", "152745.595000", "152747.085000", "152748.575000", "152750.065000", "152751.555000", "152753.045000", "152754.535000", "152756.025000", "152757.515000", "152759.005000", "152800.495000", "152801.985000", "152803.475000", "152804.965000", "152806.455000", "152807.945000", "152809.435000", "152810.925000", "152812.415000", "152813.905000", "152815.395000", "152816.885000", "152818.375000", "152819.865000", "152821.355000", "152822.845000", "152824.335000", "152825.825000", "152827.315000", "152828.805000", "152830.295000", "152831.785000", "152833.275000", "152834.765000", "152836.255000", "152837.745000", "152839.235000", "152840.725000", "152842.215000", "152843.705000", "152845.195000", "152846.685000", "152848.175000", "152849.665000", "152851.155000", "152852.645000", "152854.135000", "152855.625000", "152857.115000", "152858.605000", "152900.095000", "152901.585000", "152903.075000", "152904.565000", "152906.055000", "152907.545000", "152909.035000", "152910.525000", "152912.015000", "152913.505000", "152914.995000", "152916.485000", "152917.975000", "152919.465000", "152920.955000", "152922.445000", "152923.935000", "152925.425000", "152926.915000", "152928.405000", "152929.895000", "152931.385000", "152932.875000", "152934.365000", "152935.855000", "152937.345000", "152938.835000", "152940.325000", "152941.815000", "152943.305000", "152944.795000", "152946.285000", "152947.775000", "152949.265000", "152950.755000", "152952.245000", "152953.735000", "152955.225000", "152956.715000", "152958.205000", "152959.695000", "153001.185000", "153002.675000", "153004.165000", "153005.655000", "153007.145000", "153008.635000", "153010.125000", "153011.615000", "153013.105000", "153014.595000", "153016.085000", "153017.575000", "153019.065000", "153020.555000", "153022.045000", "153023.535000", "153025.025000", "153026.515000", "153028.005000", "153029.495000", "153030.985000", "153032.475000", "153033.965000", "153035.455000", "153036.945000", "153038.435000", "153039.925000", "153041.415000", "153042.905000", "153044.395000", "153045.885000", "153047.375000", "153048.865000", "153050.355000", "153051.845000", "153053.335000", "153054.825000", "153056.315000", "153057.805000", "153059.295000", "153100.785000", "153102.275000", "153103.765000", "153105.255000", "153106.745000", "153108.235000", "153109.725000", "153111.215000", "153112.705000", "153114.195000", "153115.685000", "153117.175000", "153118.665000", "153120.155000", "153121.645000", "153123.135000", "153124.625000", "153126.115000", "153127.605000", "153129.095000", "153130.585000", "153132.075000", "153133.565000", "153135.055000", "153136.545000", "153138.035000", "153139.525000", "153141.015000", "153142.505000", "153143.995000", "153145.485000", "153146.975000", "153148.465000", "153149.955000", "153151.445000", "153152.935000", "153154.425000", "153155.915000", "153157.405000", "153158.895000", "153200.385000", "153201.875000", "153203.365000", "153204.855000", "153206.345000", "153207.835000", "153209.325000", "153210.815000", "153212.305000", "153213.795000", "153215.285000", "153216.775000", "153218.265000", "153219.755000", "153221.245000", "153222.735000", "153224.225000", "153225.715000", "153227.205000", "153228.695000", "153230.185000", "153231.675000", "153233.165000", "153234.655000", "153236.145000", "153237.635000", "153239.125000", "153240.615000", "153242.105000", "153243.595000", "153245.085000", "153246.575000", "153248.065000", "153249.555000", "153251.045000", "153252.535000", "153254.025000", "153255.515000", "153257.005000", "153258.495000", "153259.985000", "153301.475000", "153302.965000", "153304.455000", "153305.945000", "153307.435000", "153308.925000", "153310.415000", "153311.905000", "153313.395000", "153314.885000", "153316.375000", "153317.865000", "153319.355000", "153320.845000", "153322.335000", "153323.825000", "153325.315000", "153326.805000", "153328.295000", "153329.785000", "153331.275000", "153332.765000", "153334.255000", "153335.745000", "153337.235000", "153338.725000", "153340.215000", "153341.705000", "153343.195000", "153344.685000", "153346.175000", "153347.665000", "153349.155000", "153350.645000", "153352.135000", "153353.625000", "153355.115000", "153356.605000", "153358.095000", "153359.585000", "153401.075000", "153402.565000", "153404.055000", "153405.545000", "153407.035000", "153408.525000", "153410.015000", "153411.505000", "153412.995000", "153414.485000", "153415.975000", "153417.465000", "153418.955000", "153420.445000", "153421.935000", "153423.425000", "153424.915000", "153426.405000", "153427.895000", "153429.385000", "153430.875000", "153432.365000", "153433.855000", "153435.345000", "153436.835000", "153438.325000", "153439.815000", "153441.305000", "153442.795000", "153444.285000", "153445.775000", "153447.265000", "153448.755000", "153450.245000", "153451.735000", "153453.225000", "153454.715000", "153456.205000", "153457.695000", "153459.185000", "153500.675000", "153502.165000", "153503.655000", "153505.145000", "153506.635000", "153508.125000", "153509.615000", "153511.105000", "153512.595000", "153514.085000", "153515.575000", "153517.065000", "153518.555000", "153520.045000", "153521.535000", "153523.025000", "153524.515000", "153526.005000", "153527.495000", "153528.985000", "153530.475000", "153531.965000", "153533.455000", "153534.945000", "153536.435000", "153537.925000", "153539.415000", "153540.905000", "153542.395000", "153543.885000", "153545.375000", "153546.865000", "153548.355000", "153549.845000", "153551.335000", "153552.825000", "153554.315000", "153555.805000", "153557.295000", "153558.785000", "153600.275000", "153601.765000", "153603.255000", "153604.745000", "153606.235000", "153607.725000", "153609.215000", "153610.705000", "153612.195000", "153613.685000", "153615.175000", "153616.665000", "153618.155000", "153619.645000", "153621.135000", "153622.625000", "153624.115000", "153625.605000", "153627.095000", "153628.585000", "153630.075000", "153631.565000", "153633.055000", "153634.545000", "153636.035000", "153637.525000", "153639.015000", "153640.505000", "153641.995000", "153643.485000", "153644.975000", "153646.465000", "153647.955000", "153649.445000", "153650.935000", "153652.425000", "153653.915000", "153655.405000", "153656.895000", "153658.385000", "153659.875000", "153701.365000", "153702.855000", "153704.345000", "153705.835000", "153707.325000"],
      "ContentTime": ["152740.678000", "152740.693000", "152740.696000", "152740.698000", "152740.702000", "152740.705000", "152740.707000", "152740.710000", "152740.713000", "152740.716000", "152740.719000", "152740.724000", "152740.727000", "152740.730000", "152740.737000", "152740.740000", "152740.743000", "152740.746000", "152740.749000", "152740.751000", "152740.755000", "152740.758000", "152740.760000", "152740.763000", "152740.767000", "152800.637000", "152800.640000", "152800.643000", "152800.646000", "152800.649000", "152800.652000", "152800.655000", "152800.658000", "152800.661000", "152800.664000", "152800.667000", "152800.670000", "152800.673000", "152800.682000", "152800.685000", "152800.688000", "152800.691000", "152800.694000", "152800.697000", "152800.700000", "152820.636000", "152820.639000", "152820.642000", "152820.645000", "152820.648000", "152820.651000", "152820.654000", "152820.664000", "152820.667000", "152820.670000", "152820.673000", "152820.676000", "152820.679000", "152820.682000", "152820.685000", "152820.688000", "152820.691000", "152820.694000", "152820.697000", "152820.700000", "152840.636000", "152840.639000", "152840.642000", "152840.645000", "152840.648000", "152840.651000", "152840.654000", "152840.657000", "152840.660000", "152840.663000", "152840.666000", "152840.669000", "152840.672000", "152840.675000", "152840.678000", "152840.681000", "152840.684000", "152840.687000", "152840.690000", "152840.693000", "152900.636000", "152900.639000", "152900.642000", "152900.645000", "152900.648000", "152900.651000", "152900.654000", "152900.657000", "152900.660000", "152900.663000", "152900.666000", "152900.669000", "152900.672000", "152900.675000", "152900.678000", "152900.681000", "152900.684000", "152900.687000", "152900.690000", "152900.693000", "152940.636000", "152940.639000", "152940.642000", "152940.645000", "152940.653000", "152940.656000", "152940.659000", "152940.662000", "152940.665000", "152940.668000", "152940.671000", "152940.674000", "152940.677000", "152940.680000", "152940.683000", "152940.686000", "152940.693000", "152940.696000", "152940.698000", "152940.701000", "152940.705000", "152940.707000", "152940.710000", "152940.713000", "152940.716000", "152940.719000", "152940.722000", "153020.637000", "153020.640000", "153020.643000", "153020.646000", "153020.649000", "153020.652000", "153020.655000", "153020.658000", "153020.661000", "153020.664000", "153020.667000", "153020.670000", "153020.673000", "153020.676000", "153020.679000", "153020.682000", "153020.685000", "153020.688000", "153020.691000", "153020.694000", "153020.697000", "153020.700000", "153020.703000", "153020.706000", "153020.709000", "153020.712000", "153020.715000", "153100.636000", "153100.639000", "153100.642000", "153100.645000", "153100.648000", "153100.657000", "153100.660000", "153100.663000", "153100.666000", "153100.669000", "153100.672000", "153100.675000", "153100.678000", "153100.681000", "153100.684000", "153100.687000", "153100.689000", "153100.692000", "153100.696000", "153100.698000", "153100.701000", "153100.704000", "153100.707000", "153100.710000", "153100.713000", "153100.716000", "153100.719000", "153140.636000", "153140.639000", "153140.642000", "153140.645000", "153140.648000", "153140.651000", "153140.654000", "153140.657000", "153140.660000", "153140.663000", "153140.666000", "153140.669000", "153140.672000", "153140.675000", "153140.678000", "153140.681000", "153140.684000", "153140.687000", "153140.690000", "153140.693000", "153140.696000", "153140.699000", "153140.702000", "153140.705000", "153140.708000", "153140.711000", "153140.714000", "153220.636000", "153220.639000", "153220.642000", "153220.645000", "153220.648000", "153220.651000", "153220.654000", "153220.657000", "153220.660000", "153220.663000", "153220.666000", "153220.669000", "153220.672000", "153220.675000", "153220.678000", "153220.681000", "153220.684000", "153220.687000", "153220.690000", "153220.693000", "153220.697000", "153220.700000", "153220.703000", "153220.706000", "153220.709000", "153220.712000", "153300.636000", "153300.639000", "153300.642000", "153300.645000", "153300.648000", "153300.659000", "153300.662000", "153300.665000", "153300.668000", "153300.671000", "153300.674000", "153300.677000", "153300.680000", "153300.683000", "153300.686000", "153300.689000", "153300.692000", "153300.695000", "153300.698000", "153300.701000", "153300.704000", "153300.707000", "153300.710000", "153300.713000", "153300.716000", "153300.719000", "153300.722000", "153340.636000", "153340.646000", "153340.649000", "153340.652000", "153340.655000", "153340.658000", "153340.661000", "153340.664000", "153340.667000", "153340.670000", "153340.673000", "153340.676000", "153340.679000", "153340.682000", "153340.685000", "153340.688000", "153340.691000", "153340.694000", "153340.697000", "153340.700000", "153340.703000", "153340.706000", "153340.709000", "153340.712000", "153340.715000", "153340.718000", "153340.721000", "153420.636000", "153420.639000", "153420.642000", "153420.645000", "153420.648000", "153420.651000", "153420.654000", "153420.657000", "153420.660000", "153420.663000", "153420.666000", "153420.669000", "153420.672000", "153420.675000", "153420.678000", "153420.681000", "153420.684000", "153420.687000", "153420.690000", "153420.693000", "153420.696000", "153420.699000", "153420.702000", "153420.705000", "153420.708000", "153420.711000", "153420.714000", "153500.636000", "153500.639000", "153500.642000", "153500.645000", "153500.648000", "153500.651000", "153500.654000", "153500.657000", "153500.660000", "153500.663000", "153500.666000", "153500.669000", "153500.672000", "153500.675000", "153500.678000", "153500.681000", "153500.684000", "153500.687000", "153500.690000", "153500.693000", "153500.696000", "153500.699000", "153500.702000", "153500.705000", "153500.708000", "153500.711000", "153500.714000", "153540.636000", "153540.639000", "153540.642000", "153540.645000", "153540.648000", "153540.651000", "153540.654000", "153540.657000", "153540.660000", "153540.663000", "153540.666000", "153540.669000", "153540.672000", "153540.675000", "153540.678000", "153540.681000", "153540.684000", "153540.687000", "153540.703000", "153540.707000", "153540.709000", "153540.712000", "153540.715000", "153540.718000", "153540.721000", "153540.724000", "153540.727000", "153620.636000", "153620.639000", "153620.642000", "153620.646000", "153620.649000", "153620.652000", "153620.655000", "153620.658000", "153620.661000", "153620.664000", "153620.667000", "153620.670000", "153620.673000", "153620.675000", "153620.678000", "153620.682000", "153620.684000", "153620.687000", "153620.690000", "153620.693000", "153620.696000", "153620.699000", "153620.702000", "153620.706000", "153620.709000", "153620.712000", "153700.636000", "153700.639000", "153700.642000", "153700.645000", "153700.648000", "153700.651000", "153700.654000", "153700.657000", "153700.660000", "153700.663000", "153700.666000", "153700.669000", "153700.672000", "153700.675000", "153700.678000", "153700.681000", "153700.684000", "153700.687000", "153700.690000", "153700.693000", "153700.696000", "153700.699000", "153700.702000", "153700.705000", "153700.708000", "153700.711000", "153700.714000", "153710.507000", "153710.511000", "153710.514000", "153710.517000", "153710.520000", "153710.523000", "153710.526000"],
      "InstanceCreationTime": ["152740.678000", "152740.693000", "152740.696000", "152740.698000", "152740.702000", "152740.705000", "152740.707000", "152740.710000", "152740.713000", "152740.716000", "152740.719000", "152740.724000", "152740.727000", "152740.730000", "152740.737000", "152740.740000", "152740.743000", "152740.746000", "152740.749000", "152740.751000", "152740.755000", "152740.758000", "152740.760000", "152740.763000", "152740.767000", "152800.637000", "152800.640000", "152800.643000", "152800.646000", "152800.649000", "152800.652000", "152800.655000", "152800.658000", "152800.661000", "152800.664000", "152800.667000", "152800.670000", "152800.673000", "152800.682000", "152800.685000", "152800.688000", "152800.691000", "152800.694000", "152800.697000", "152800.700000", "152820.636000", "152820.639000", "152820.642000", "152820.645000", "152820.648000", "152820.651000", "152820.654000", "152820.664000", "152820.667000", "152820.670000", "152820.673000", "152820.676000", "152820.679000", "152820.682000", "152820.685000", "152820.688000", "152820.691000", "152820.694000", "152820.697000", "152820.700000", "152840.636000", "152840.639000", "152840.642000", "152840.645000", "152840.648000", "152840.651000", "152840.654000", "152840.657000", "152840.660000", "152840.663000", "152840.666000", "152840.669000", "152840.672000", "152840.675000", "152840.678000", "152840.681000", "152840.684000", "152840.687000", "152840.690000", "152840.693000", "152900.636000", "152900.639000", "152900.642000", "152900.645000", "152900.648000", "152900.651000", "152900.654000", "152900.657000", "152900.660000", "152900.663000", "152900.666000", "152900.669000", "152900.672000", "152900.675000", "152900.678000", "152900.681000", "152900.684000", "152900.687000", "152900.690000", "152900.693000", "152940.636000", "152940.639000", "152940.642000", "152940.645000", "152940.653000", "152940.656000", "152940.659000", "152940.662000", "152940.665000", "152940.668000", "152940.671000", "152940.674000", "152940.677000", "152940.680000", "152940.683000", "152940.686000", "152940.693000", "152940.696000", "152940.698000", "152940.701000", "152940.705000", "152940.707000", "152940.710000", "152940.713000", "152940.716000", "152940.719000", "152940.722000", "153020.637000", "153020.640000", "153020.643000", "153020.646000", "153020.649000", "153020.652000", "153020.655000", "153020.658000", "153020.661000", "153020.664000", "153020.667000", "153020.670000", "153020.673000", "153020.676000", "153020.679000", "153020.682000", "153020.685000", "153020.688000", "153020.691000", "153020.694000", "153020.697000", "153020.700000", "153020.703000", "153020.706000", "153020.709000", "153020.712000", "153020.715000", "153100.636000", "153100.639000", "153100.642000", "153100.645000", "153100.648000", "153100.657000", "153100.660000", "153100.663000", "153100.666000", "153100.669000", "153100.672000", "153100.675000", "153100.678000", "153100.681000", "153100.684000", "153100.687000", "153100.689000", "153100.692000", "153100.696000", "153100.698000", "153100.701000", "153100.704000", "153100.707000", "153100.710000", "153100.713000", "153100.716000", "153100.719000", "153140.636000", "153140.639000", "153140.642000", "153140.645000", "153140.648000", "153140.651000", "153140.654000", "153140.657000", "153140.660000", "153140.663000", "153140.666000", "153140.669000", "153140.672000", "153140.675000", "153140.678000", "153140.681000", "153140.684000", "153140.687000", "153140.690000", "153140.693000", "153140.696000", "153140.699000", "153140.702000", "153140.705000", "153140.708000", "153140.711000", "153140.714000", "153220.636000", "153220.639000", "153220.642000", "153220.645000", "153220.648000", "153220.651000", "153220.654000", "153220.657000", "153220.660000", "153220.663000", "153220.666000", "153220.669000", "153220.672000", "153220.675000", "153220.678000", "153220.681000", "153220.684000", "153220.687000", "153220.690000", "153220.693000", "153220.697000", "153220.700000", "153220.703000", "153220.706000", "153220.709000", "153220.712000", "153300.636000", "153300.639000", "153300.642000", "153300.645000", "153300.648000", "153300.659000", "153300.662000", "153300.665000", "153300.668000", "153300.671000", "153300.674000", "153300.677000", "153300.680000", "153300.683000", "153300.686000", "153300.689000", "153300.692000", "153300.695000", "153300.698000", "153300.701000", "153300.704000", "153300.707000", "153300.710000", "153300.713000", "153300.716000", "153300.719000", "153300.722000", "153340.636000", "153340.646000", "153340.649000", "153340.652000", "153340.655000", "153340.658000", "153340.661000", "153340.664000", "153340.667000", "153340.670000", "153340.673000", "153340.676000", "153340.679000", "153340.682000", "153340.685000", "153340.688000", "153340.691000", "153340.694000", "153340.697000", "153340.700000", "153340.703000", "153340.706000", "153340.709000", "153340.712000", "153340.715000", "153340.718000", "153340.721000", "153420.636000", "153420.639000", "153420.642000", "153420.645000", "153420.648000", "153420.651000", "153420.654000", "153420.657000", "153420.660000", "153420.663000", "153420.666000", "153420.669000", "153420.672000", "153420.675000", "153420.678000", "153420.681000", "153420.684000", "153420.687000", "153420.690000", "153420.693000", "153420.696000", "153420.699000", "153420.702000", "153420.705000", "153420.708000", "153420.711000", "153420.714000", "153500.636000", "153500.639000", "153500.642000", "153500.645000", "153500.648000", "153500.651000", "153500.654000", "153500.657000", "153500.660000", "153500.663000", "153500.666000", "153500.669000", "153500.672000", "153500.675000", "153500.678000", "153500.681000", "153500.684000", "153500.687000", "153500.690000", "153500.693000", "153500.696000", "153500.699000", "153500.702000", "153500.705000", "153500.708000", "153500.711000", "153500.714000", "153540.636000", "153540.639000", "153540.642000", "153540.645000", "153540.648000", "153540.651000", "153540.654000", "153540.657000", "153540.660000", "153540.663000", "153540.666000", "153540.669000", "153540.672000", "153540.675000", "153540.678000", "153540.681000", "153540.684000", "153540.687000", "153540.703000", "153540.707000", "153540.709000", "153540.712000", "153540.715000", "153540.718000", "153540.721000", "153540.724000", "153540.727000", "153620.636000", "153620.639000", "153620.642000", "153620.646000", "153620.649000", "153620.652000", "153620.655000", "153620.658000", "153620.661000", "153620.664000", "153620.667000", "153620.670000", "153620.673000", "153620.675000", "153620.678000", "153620.682000", "153620.684000", "153620.687000", "153620.690000", "153620.693000", "153620.696000", "153620.699000", "153620.702000", "153620.706000", "153620.709000", "153620.712000", "153700.636000", "153700.639000", "153700.642000", "153700.645000", "153700.648000", "153700.651000", "153700.654000", "153700.657000", "153700.660000", "153700.663000", "153700.666000", "153700.669000", "153700.672000", "153700.675000", "153700.678000", "153700.681000", "153700.684000", "153700.687000", "153700.690000", "153700.693000", "153700.696000", "153700.699000", "153700.702000", "153700.705000", "153700.708000", "153700.711000", "153700.714000", "153710.507000", "153710.511000", "153710.514000", "153710.517000", "153710.520000", "153710.523000", "153710.526000"],
