{
  "AcquisitionMatrixPE": 104,
  "AcquisitionNumber": 1,
  "AcquisitionTime": "11:22:56.720000",
  "BandwidthPerPixelPhaseEncode": 17.17,
  "BaseResolution": 104,
  "BodyPartExamined": "BRAIN",
  "CoilString": "HC1-7;NC1_2",
  "ConsistencyInfo": "N4_VE11C_LATEST_20160120",
  "ConversionSoftware": "dcm2niix",
  "ConversionSoftwareVersion": "v1.0.20190902",
  "DerivedVendorReportedEchoSpacing": 0.000560011,
  "DeviceSerialNumber": "167006",
  "DwellTime": 2.1e-06,
  "EchoTime": 0.037,
  "EchoTrainLength": 104,
  "EffectiveEchoSpacing": 0.000560011,
  "FlipAngle": 52,
  "ImageComments": "Unaliased_MB4_PE3_LB",
  "ImageOrientationPatientDICOM": [0.998178, 0.0408095, 0.044455, -0.0224775, 0.935087, -0.353705],
  "ImageType": [
    "ORIGINAL",
    "PRIMARY",
    "M",
    "MB",
    "ND",
    "MOSAIC"
],
  "ImagingFrequency": 123.259,
  "InPlanePhaseEncodingDirectionDICOM": "COL",
  "InstitutionAddress": "Chemin_Queen-Mary_4565_Montreal_District_CA_H3W_1W5",
  "InstitutionName": "IUGM",
  "InstitutionalDepartmentName": "Department",
  "MRAcquisitionType": "2D",
  "MagneticFieldStrength": 3,
  "Manufacturer": "Siemens",
  "ManufacturersModelName": "Prisma_fit",
  "Modality": "MR",
  "MultibandAccelerationFactor": 4,
  "PartialFourier": 1,
  "PatientPosition": "HFS",
  "PercentPhaseFOV": 100,
  "PhaseEncodingDirection": "j",
  "PhaseEncodingSteps": 104,
  "PhaseResolution": 1,
  "PixelBandwidth": 2290,
  "ProcedureStepDescription": "games_shinobi",
  "ProtocolName": "func_task-shinobi_run-5",
  "PulseSequenceDetails": "%CustomerSeq%_cmrr_mbep2d_bold",
  "ReceiveCoilActiveElements": "HC1-7;NC1,2",
  "ReceiveCoilName": "HeadNeck_64",
  "ReconMatrixPE": 104,
  "RepetitionTime": 1.49,
  "SAR": 0.0371175,
  "ScanOptions": "FS",
  "ScanningSequence": "EP",
  "SequenceName": "epfid2d1_104",
  "SequenceVariant": "SK_SS",
  "SeriesDescription": "func_task-shinobi_run-5",
  "SeriesNumber": 17,
  "ShimSetting": [638, -7177, -8858, 612, 84, 53, 16, 1],
  "SliceThickness": 2,
  "SliceTiming": [0, 0.785, 0.0975, 0.8825, 0.1975, 0.98, 0.295, 1.0775, 0.3925, 1.1775, 0.49, 1.275, 0.5875, 1.3725, 0.6875, 0, 0.785, 0.0975, 0.8825, 0.1975, 0.98, 0.295, 1.0775, 0.3925, 1.1775, 0.49, 1.275, 0.5875, 1.3725, 0.6875, 0, 0.785, 0.0975, 0.8825, 0.1975, 0.98, 0.295, 1.0775, 0.3925, 1.1775, 0.49, 1.275, 0.5875, 1.3725, 0.6875, 0, 0.785, 0.0975, 0.8825, 0.1975, 0.98, 0.295, 1.0775, 0.3925, 1.1775, 0.49, 1.275, 0.5875, 1.3725, 0.6875],
  "SoftwareVersions": "syngo_MR_E11",
  "SpacingBetweenSlices": 2,
  "StationName": "MRC35049",
  "TaskName": "shinobi",
  "TotalReadoutTime": 0.0576811,
  "TxRefAmp": 243.409,
  "WipMemBlock": "6c6df893-23d6-4c22-b38f-9ec3a174395c||Sequence: R016 ve11c/master r/e634e98; Dec 19 2017 11:00:25 by eja",
  "dcmmeta_affine": [
    [-1.9963550567626953, -0.04495491832494736, 0.11200764775276184, 106.74775695800781],
    [-0.08161908388137817, 1.8701735734939575, -0.7041230797767639, -56.06331253051758],
    [0.08890996873378754, 0.7074108123779297, 1.868599772453308, -66.90802001953125],
    [0.0, 0.0, 0.0, 1.0]
],
  "dcmmeta_reorient_transform": [
    [0.0, -1.0, 0.0, 103.0],
    [1.0, 0.0, 0.0, 0.0],
    [0.0, 0.0, 1.0, 0.0],
    [0.0, 0.0, 0.0, 1.0]
],
  "dcmmeta_shape": [104, 104, 60, 464],
  "dcmmeta_slice_dim": 2,
  "dcmmeta_version": 0.6,
  "global": {
    "const": {
      "AcquisitionMatrix": [104, 0, 0, 104],
      "AngioFlag": "N",
      "BitsAllocated": 16,
      "BitsStored": 16,
      "BodyPartExamined": "BRAIN",
      "Columns": 832,
      "EchoNumbers": 1,
      "EchoTime": 37.0,
      "EchoTrainLength": 104,
      "FlipAngle": 52.0,
      "HighBit": 15,
      "ImageOrientationPatient": [0.99817750706718, 0.04080954287738, 0.04445498391968, -0.0224774599793, 0.93508675955408, -0.3537054083549],
      "ImagePositionPatient": [-812.42703646904, -847.01706990593, 231.08960416773],
      "ImageType": [
        "ORIGINAL",
        "PRIMARY",
        "M",
        "MB",
        "ND",
        "MOSAIC"
],
      "ImagedNucleus": "1H",
      "ImagingFrequency": 123.259334,
      "InPlanePhaseEncodingDirection": "COL",
      "MRAcquisitionType": "2D",
      "MagneticFieldStrength": 3.0,
      "Manufacturer": "SIEMENS",
      "ManufacturerModelName": "Prisma_fit",
      "Modality": "MR",
      "NumberOfAverages": 1.0,
      "NumberOfPhaseEncodingSteps": 104,
      "PercentPhaseFieldOfView": 100.0,
      "PercentSampling": 100.0,
      "PerformedProcedureStepStartTime": "102538.636000",
      "PhotometricInterpretation": "MONOCHROME2",
      "PixelBandwidth": 2290.0,
      "PixelRepresentation": 0,
      "PixelSpacing": [2.0, 2.0],
      "ProtocolName": "func_task-shinobi_run-5",
      "RepetitionTime": 1490.0,
      "Rows": 832,
      "SAR": 0.03711753961825,
      "SamplesPerPixel": 1,
      "ScanOptions": "FS",
      "ScanningSequence": "EP",
      "SequenceName": "epfid2d1_104",
      "SequenceVariant": [
        "SK",
        "SS"
],
      "SeriesDescription": "func_task-shinobi_run-5",
      "SeriesNumber": 17,
      "SeriesTime": "112421.797000",
      "SliceLocation": -36.796134565539,
      "SliceThickness": 2.0,
      "SmallestImagePixelValue": 0,
      "SoftwareVersions": "syngo MR E11",
      "SpacingBetweenSlices": 1.9999999809619,
      "SpecificCharacterSet": "ISO_IR 100",
      "StudyID": "1",
      "StudyTime": "102538.570000",
      "TransmitCoilName": "Body",
      "VariableFlipAngleFlag": "N",
      "WindowCenterWidthExplanation": "Algo1",
      "dBdt": 0.0},
    "slices": {}
  },
  "time": {
    "samples": {
      "AcquisitionNumber": [1, 2, 3, 4, 5, 6, 7, 8, 9, 10, 11, 12, 13, 14, 15, 16, 17, 18, 19, 20, 21, 22, 23, 24, 25, 26, 27, 28, 29, 30, 31, 32, 33, 34, 35, 36, 37, 38, 39, 40, 41, 42, 43, 44, 45, 46, 47, 48, 49, 50, 51, 52, 53, 54, 55, 56, 57, 58, 59, 60, 61, 62, 63, 64, 65, 66, 67, 68, 69, 70, 71, 72, 73, 74, 75, 76, 77, 78, 79, 80, 81, 82, 83, 84, 85, 86, 87, 88, 89, 90, 91, 92, 93, 94, 95, 96, 97, 98, 99, 100, 101, 102, 103, 104, 105, 106, 107, 108, 109, 110, 111, 112, 113, 114, 115, 116, 117, 118, 119, 120, 121, 122, 123, 124, 125, 126, 127, 128, 129, 130, 131, 132, 133, 134, 135, 136, 137, 138, 139, 140, 141, 142, 143, 144, 145, 146, 147, 148, 149, 150, 151, 152, 153, 154, 155, 156, 157, 158, 159, 160, 161, 162, 163, 164, 165, 166, 167, 168, 169, 170, 171, 172, 173, 174, 175, 176, 177, 178, 179, 180, 181, 182, 183, 184, 185, 186, 187, 188, 189, 190, 191, 192, 193, 194, 195, 196, 197, 198, 199, 200, 201, 202, 203, 204, 205, 206, 207, 208, 209, 210, 211, 212, 213, 214, 215, 216, 217, 218, 219, 220, 221, 222, 223, 224, 225, 226, 227, 228, 229, 230, 231, 232, 233, 234, 235, 236, 237, 238, 239, 240, 241, 242, 243, 244, 245, 246, 247, 248, 249, 250, 251, 252, 253, 254, 255, 256, 257, 258, 259, 260, 261, 262, 263, 264, 265, 266, 267, 268, 269, 270, 271, 272, 273, 274, 275, 276, 277, 278, 279, 280, 281, 282, 283, 284, 285, 286, 287, 288, 289, 290, 291, 292, 293, 294, 295, 296, 297, 298, 299, 300, 301, 302, 303, 304, 305, 306, 307, 308, 309, 310, 311, 312, 313, 314, 315, 316, 317, 318, 319, 320, 321, 322, 323, 324, 325, 326, 327, 328, 329, 330, 331, 332, 333, 334, 335, 336, 337, 338, 339, 340, 341, 342, 343, 344, 345, 346, 347, 348, 349, 350, 351, 352, 353, 354, 355, 356, 357, 358, 359, 360, 361, 362, 363, 364, 365, 366, 367, 368, 369, 370, 371, 372, 373, 374, 375, 376, 377, 378, 379, 380, 381, 382, 383, 384, 385, 386, 387, 388, 389, 390, 391, 392, 393, 394, 395, 396, 397, 398, 399, 400, 401, 402, 403, 404, 405, 406, 407, 408, 409, 410, 411, 412, 413, 414, 415, 416, 417, 418, 419, 420, 421, 422, 423, 424, 425, 426, 427, 428, 429, 430, 431, 432, 433, 434, 435, 436, 437, 438, 439, 440, 441, 442, 443, 444, 445, 446, 447, 448, 449, 450, 451, 452, 453, 454, 455, 456, 457, 458, 459, 460, 461, 462, 463, 464],
      "AcquisitionTime": ["112256.720000", "112258.210000", "112259.700000", "112301.190000", "112302.680000", "112304.170000", "112305.660000", "112307.150000", "112308.640000", "112310.130000", "112311.620000", "112313.110000", "112314.600000", "112316.090000", "112317.580000", "112319.070000", "112320.560000", "112322.050000", "112323.540000", "112325.030000", "112326.520000", "112328.010000", "112329.500000", "112330.990000", "112332.480000", "112333.970000", "112335.460000", "112336.950000", "112338.440000", "112339.930000", "112341.420000", "112342.910000", "112344.400000", "112345.890000", "112347.380000", "112348.870000", "112350.360000", "112351.850000", "112353.340000", "112354.830000", "112356.320000", "112357.810000", "112359.300000", "112400.790000", "112402.280000", "112403.770000", "112405.260000", "112406.750000", "112408.240000", "112409.730000", "112411.220000", "112412.710000", "112414.200000", "112415.690000", "112417.180000", "112418.670000", "112420.160000", "112421.650000", "112423.140000", "112424.630000", "112426.120000", "112427.610000", "112429.100000", "112430.590000", "112432.080000", "112433.570000", "112435.060000", "112436.550000", "112438.040000", "112439.530000", "112441.020000", "112442.510000", "112444.000000", "112445.490000", "112446.980000", "112448.470000", "112449.960000", "112451.450000", "112452.940000", "112454.430000", "112455.920000", "112457.410000", "112458.900000", "112500.390000", "112501.880000", "112503.370000", "112504.860000", "112506.350000", "112507.840000", "112509.330000", "112510.820000", "112512.310000", "112513.800000", "112515.290000", "112516.780000", "112518.270000", "112519.760000", "112521.250000", "112522.740000", "112524.230000", "112525.720000", "112527.210000", "112528.700000", "112530.190000", "112531.680000", "112533.170000", "112534.660000", "112536.150000", "112537.640000", "112539.130000", "112540.620000", "112542.110000", "112543.600000", "112545.090000", "112546.580000", "112548.070000", "112549.560000", "112551.050000", "112552.540000", "112554.030000", "112555.520000", "112557.010000", "112558.500000", "112559.990000", "112601.480000", "112602.970000", "112604.460000", "112605.950000", "112607.440000", "112608.930000", "112610.420000", "112611.910000", "112613.400000", "112614.890000", "112616.380000", "112617.870000", "112619.360000", "112620.850000", "112622.340000", "112623.830000", "112625.320000", "112626.810000", "112628.300000", "112629.790000", "112631.280000", "112632.770000", "112634.260000", "112635.750000", "112637.240000", "112638.730000", "112640.220000", "112641.710000", "112643.200000", "112644.690000", "112646.180000", "112647.670000", "112649.160000", "112650.650000", "112652.140000", "112653.630000", "112655.120000", "112656.610000", "112658.100000", "112659.590000", "112701.080000", "112702.570000", "112704.060000", "112705.550000", "112707.040000", "112708.530000", "112710.020000", "112711.510000", "112713.000000", "112714.490000", "112715.980000", "112717.470000", "112718.960000", "112720.450000", "112721.940000", "112723.430000", "112724.920000", "112726.410000", "112727.900000", "112729.390000", "112730.880000", "112732.370000", "112733.860000", "112735.350000", "112736.840000", "112738.330000", "112739.820000", "112741.310000", "112742.800000", "112744.290000", "112745.780000", "112747.270000", "112748.760000", "112750.250000", "112751.740000", "112753.230000", "112754.720000", "112756.210000", "112757.700000", "112759.190000", "112800.680000", "112802.170000", "112803.660000", "112805.150000", "112806.640000", "112808.130000", "112809.620000", "112811.110000", "112812.600000", "112814.090000", "112815.580000", "112817.070000", "112818.560000", "112820.050000", "112821.540000", "112823.030000", "112824.520000", "112826.010000", "112827.500000", "112828.990000", "112830.480000", "112831.970000", "112833.460000", "112834.950000", "112836.440000", "112837.930000", "112839.420000", "112840.910000", "112842.400000", "112843.890000", "112845.380000", "112846.870000", "112848.360000", "112849.850000", "112851.340000", "112852.830000", "112854.320000", "112855.810000", "112857.300000", "112858.790000", "112900.280000", "112901.770000", "112903.260000", "112904.750000", "112906.240000", "112907.730000", "112909.220000", "112910.710000", "112912.200000", "112913.690000", "112915.180000", "112916.670000", "112918.160000", "112919.650000", "112921.140000", "112922.630000", "112924.120000", "112925.610000", "112927.100000", "112928.590000", "112930.080000", "112931.570000", "112933.060000", "112934.550000", "112936.040000", "112937.530000", "112939.020000", "112940.510000", "112942.000000", "112943.490000", "112944.980000", "112946.470000", "112947.960000", "112949.450000", "112950.940000", "112952.430000", "112953.920000", "112955.410000", "112956.900000", "112958.390000", "112959.880000", "113001.370000", "113002.860000", "113004.350000", "113005.840000", "113007.330000", "113008.820000", "113010.310000", "113011.800000", "113013.290000", "113014.780000", "113016.270000", "113017.760000", "113019.250000", "113020.740000", "113022.230000", "113023.720000", "113025.210000", "113026.700000", "113028.190000", "113029.680000", "113031.170000", "113032.660000", "113034.150000", "113035.640000", "113037.130000", "113038.620000", "113040.110000", "113041.600000", "113043.090000", "113044.580000", "113046.070000", "113047.560000", "113049.050000", "113050.540000", "113052.030000", "113053.520000", "113055.010000", "113056.500000", "113057.990000", "113059.480000", "113100.970000", "113102.460000", "113103.950000", "113105.440000", "113106.930000", "113108.420000", "113109.910000", "113111.400000", "113112.890000", "113114.380000", "113115.870000", "113117.360000", "113118.850000", "113120.340000", "113121.830000", "113123.320000", "113124.810000", "113126.300000", "113127.790000", "113129.280000", "113130.770000", "113132.260000", "113133.750000", "113135.240000", "113136.730000", "113138.220000", "113139.710000", "113141.200000", "113142.690000", "113144.180000", "113145.670000", "113147.160000", "113148.650000", "113150.140000", "113151.630000", "113153.120000", "113154.610000", "113156.100000", "113157.590000", "113159.080000", "113200.570000", "113202.060000", "113203.550000", "113205.040000", "113206.530000", "113208.020000", "113209.510000", "113211.000000", "113212.490000", "113213.980000", "113215.470000", "113216.960000", "113218.450000", "113219.940000", "113221.430000", "113222.920000", "113224.410000", "113225.900000", "113227.390000", "113228.880000", "113230.370000", "113231.860000", "113233.350000", "113234.840000", "113236.330000", "113237.820000", "113239.310000", "113240.800000", "113242.290000", "113243.780000", "113245.270000", "113246.760000", "113248.250000", "113249.740000", "113251.230000", "113252.720000", "113254.210000", "113255.700000", "113257.190000", "113258.680000", "113300.170000", "113301.660000", "113303.150000", "113304.640000", "113306.130000", "113307.620000", "113309.110000", "113310.600000", "113312.090000", "113313.580000", "113315.070000", "113316.560000", "113318.050000", "113319.540000", "113321.030000", "113322.520000", "113324.010000", "113325.500000", "113326.990000", "113328.480000", "113329.970000", "113331.460000", "113332.950000", "113334.440000", "113335.930000", "113337.420000", "113338.910000", "113340.400000", "113341.890000", "113343.380000", "113344.870000", "113346.360000", "113347.850000", "113349.340000", "113350.830000", "113352.320000", "113353.810000", "113355.300000", "113356.790000", "113358.280000", "113359.770000", "113401.260000", "113402.750000", "113404.240000", "113405.730000", "113407.220000", "113408.710000", "113410.200000", "113411.690000", "113413.180000", "113414.670000", "113416.160000", "113417.650000", "113419.140000", "113420.630000", "113422.120000", "113423.610000", "113425.100000", "113426.590000"],
      "ContentTime": ["112421.800000", "112421.810000", "112421.813000", "112421.816000", "112421.819000", "112421.822000", "112421.824000", "112421.827000", "112421.830000", "112421.833000", "112421.836000", "112421.839000", "112421.842000", "112421.845000", "112421.847000", "112421.850000", "112421.853000", "112421.856000", "112421.863000", "112421.865000", "112421.869000", "112421.871000", "112421.874000", "112421.877000", "112421.880000", "112421.883000", "112421.886000", "112421.889000", "112421.892000", "112421.894000", "112421.897000", "112421.900000", "112441.760000", "112441.763000", "112441.766000", "112441.775000", "112441.778000", "112441.781000", "112441.784000", "112441.787000", "112441.790000", "112441.793000", "112441.796000", "112441.799000", "112441.801000", "112441.804000", "112441.807000", "112441.810000", "112441.813000", "112441.816000", "112441.818000", "112441.821000", "112501.760000", "112501.763000", "112501.766000", "112501.769000", "112501.772000", "112501.774000", "112501.777000", "112501.780000", "112501.783000", "112501.786000", "112501.789000", "112501.792000", "112501.795000", "112501.797000", "112501.800000", "112501.803000", "112501.806000", "112501.809000", "112501.812000", "112501.815000", "112521.760000", "112521.763000", "112521.766000", "112521.770000", "112521.773000", "112521.776000", "112521.778000", "112521.781000", "112521.785000", "112521.788000", "112521.791000", "112521.795000", "112521.798000", "112521.801000", "112521.804000", "112521.815000", "112521.818000", "112521.821000", "112521.823000", "112521.826000", "112601.761000", "112601.764000", "112601.771000", "112601.774000", "112601.777000", "112601.780000", "112601.783000", "112601.785000", "112601.788000", "112601.791000", "112601.794000", "112601.797000", "112601.800000", "112601.803000", "112601.806000", "112601.809000", "112601.812000", "112601.815000", "112601.817000", "112601.820000", "112601.823000", "112601.826000", "112601.829000", "112601.832000", "112601.834000", "112601.837000", "112601.840000", "112601.843000", "112601.846000", "112601.849000", "112601.852000", "112641.760000", "112641.763000", "112641.766000", "112641.769000", "112641.772000", "112641.775000", "112641.777000", "112641.780000", "112641.783000", "112641.786000", "112641.789000", "112641.792000", "112641.795000", "112641.798000", "112641.801000", "112641.804000", "112641.807000", "112641.810000", "112641.813000", "112641.815000", "112641.818000", "112641.821000", "112641.824000", "112641.827000", "112641.830000", "112641.833000", "112641.836000", "112721.760000", "112721.763000", "112721.766000", "112721.769000", "112721.772000", "112721.775000", "112721.777000", "112721.780000", "112721.783000", "112721.786000", "112721.789000", "112721.792000", "112721.795000", "112721.798000", "112721.800000", "112721.804000", "112721.806000", "112721.809000", "112721.812000", "112721.815000", "112721.818000", "112721.821000", "112721.823000", "112721.827000", "112721.829000", "112721.832000", "112721.835000", "112801.760000", "112801.763000", "112801.766000", "112801.769000", "112801.772000", "112801.774000", "112801.777000", "112801.780000", "112801.783000", "112801.786000", "112801.789000", "112801.792000", "112801.795000", "112801.798000", "112801.801000", "112801.803000", "112801.806000", "112801.809000", "112801.812000", "112801.815000", "112801.818000", "112801.821000", "112801.824000", "112801.827000", "112801.829000", "112801.832000", "112801.835000", "112841.760000", "112841.763000", "112841.766000", "112841.769000", "112841.772000", "112841.775000", "112841.778000", "112841.780000", "112841.783000", "112841.796000", "112841.799000", "112841.802000", "112841.804000", "112841.808000", "112841.810000", "112841.813000", "112841.816000", "112841.819000", "112841.822000", "112841.825000", "112841.828000", "112841.831000", "112841.833000", "112841.836000", "112841.839000", "112841.842000", "112841.845000", "112921.760000", "112921.763000", "112921.773000", "112921.776000", "112921.779000", "112921.782000", "112921.786000", "112921.788000", "112921.792000", "112921.795000", "112921.798000", "112921.801000", "112921.804000", "112921.807000", "112921.809000", "112921.812000", "112921.815000", "112921.818000", "112921.821000", "112921.824000", "112921.827000", "112921.830000", "112921.833000", "112921.836000", "112921.839000", "112921.841000", "113001.760000", "113001.763000", "113001.771000", "113001.774000", "113001.777000", "113001.780000", "113001.783000", "113001.786000", "113001.789000", "113001.792000", "113001.795000", "113001.798000", "113001.801000", "113001.803000", "113001.806000", "113001.809000", "113001.812000", "113001.815000", "113001.818000", "113001.821000", "113001.824000", "113001.827000", "113001.830000", "113001.833000", "113001.836000", "113001.838000", "113001.841000", "113021.760000", "113021.763000", "113021.766000", "113021.769000", "113021.772000", "113021.775000", "113021.778000", "113021.781000", "113021.784000", "113021.786000", "113021.789000", "113021.792000", "113021.795000", "113021.798000", "113101.760000", "113101.763000", "113101.766000", "113101.893000", "113101.896000", "113101.899000", "113101.902000", "113101.905000", "113101.908000", "113101.911000", "113101.914000", "113101.917000", "113101.919000", "113101.922000", "113101.925000", "113101.928000", "113101.931000", "113101.934000", "113101.937000", "113101.940000", "113101.943000", "113101.945000", "113101.948000", "113101.951000", "113101.954000", "113101.957000", "113101.960000", "113141.760000", "113141.763000", "113141.766000", "113141.800000", "113141.803000", "113141.806000", "113141.809000", "113141.812000", "113141.815000", "113141.817000", "113141.820000", "113141.823000", "113141.826000", "113141.829000", "113141.832000", "113141.836000", "113141.839000", "113141.842000", "113141.845000", "113141.848000", "113141.852000", "113141.855000", "113141.858000", "113141.861000", "113141.864000", "113141.867000", "113221.760000", "113221.763000", "113221.766000", "113221.769000", "113221.772000", "113221.775000", "113221.777000", "113221.780000", "113221.783000", "113221.786000", "113221.807000", "113221.810000", "113221.819000", "113221.822000", "113221.825000", "113221.828000", "113221.831000", "113221.834000", "113221.837000", "113221.839000", "113221.842000", "113221.845000", "113221.848000", "113221.851000", "113221.854000", "113221.857000", "113221.860000", "113301.761000", "113301.764000", "113301.767000", "113301.770000", "113301.773000", "113301.776000", "113301.778000", "113301.781000", "113301.784000", "113301.787000", "113301.790000", "113301.793000", "113301.796000", "113301.799000", "113301.802000", "113301.805000", "113301.807000", "113301.810000", "113301.813000", "113301.816000", "113301.819000", "113301.822000", "113301.825000", "113301.828000", "113301.830000", "113301.833000", "113301.836000", "113341.760000", "113341.763000", "113341.766000", "113341.769000", "113341.772000", "113341.775000", "113341.778000", "113341.781000", "113341.783000", "113341.786000", "113341.789000", "113341.792000", "113341.795000", "113341.798000", "113341.801000", "113341.804000", "113341.806000", "113341.809000", "113341.812000", "113341.815000", "113341.818000", "113341.821000", "113341.824000", "113341.826000", "113341.829000", "113341.832000", "113341.835000", "113421.760000", "113421.763000", "113421.766000", "113421.769000", "113421.772000", "113421.775000", "113421.778000", "113421.781000", "113421.784000", "113421.787000", "113421.789000", "113421.792000", "113421.795000", "113421.798000", "113421.801000", "113421.804000", "113421.807000", "113421.810000", "113421.813000", "113421.815000", "113421.818000", "113421.821000", "113421.824000", "113421.827000", "113421.830000", "113421.833000", "113421.836000", "113429.052000", "113429.055000", "113429.064000", "113429.066000", "113429.069000"],
