{
  "AcquisitionMatrixPE": 104,
  "AcquisitionNumber": 1,
  "AcquisitionTime": "10:36:6.580000",
  "BandwidthPerPixelPhaseEncode": 17.17,
  "BaseResolution": 104,
  "BodyPartExamined": "BRAIN",
  "CoilString": "HC1-7;NC1_2",
  "ConsistencyInfo": "N4_VE11C_LATEST_20160120",
  "ConversionSoftware": "dcm2niix",
  "ConversionSoftwareVersion": "v1.0.20190902",
  "DerivedVendorReportedEchoSpacing": 0.000560011,
  "DeviceSerialNumber": "167006",
  "DwellTime": 2.1e-06,
  "EchoTime": 0.037,
  "EchoTrainLength": 104,
  "EffectiveEchoSpacing": 0.000560011,
  "FlipAngle": 52,
  "ImageComments": "Unaliased_MB4_PE3_LB",
  "ImageOrientationPatientDICOM": [0.998178, 0.0408095, 0.044455, -0.0224775, 0.935087, -0.353705],
  "ImageType": [
    "ORIGINAL",
    "PRIMARY",
    "M",
    "MB",
    "ND",
    "MOSAIC"
],
  "ImagingFrequency": 123.259,
  "InPlanePhaseEncodingDirectionDICOM": "COL",
  "InstitutionAddress": "Chemin_Queen-Mary_4565_Montreal_District_CA_H3W_1W5",
  "InstitutionName": "IUGM",
  "InstitutionalDepartmentName": "Department",
  "MRAcquisitionType": "2D",
  "MagneticFieldStrength": 3,
  "Manufacturer": "Siemens",
  "ManufacturersModelName": "Prisma_fit",
  "Modality": "MR",
  "MultibandAccelerationFactor": 4,
  "PartialFourier": 1,
  "PatientPosition": "HFS",
  "PercentPhaseFOV": 100,
  "PhaseEncodingDirection": "j",
  "PhaseEncodingSteps": 104,
  "PhaseResolution": 1,
  "PixelBandwidth": 2290,
  "ProcedureStepDescription": "games_shinobi",
  "ProtocolName": "func_task-shinobi_run-1",
  "PulseSequenceDetails": "%CustomerSeq%_cmrr_mbep2d_bold",
  "ReceiveCoilActiveElements": "HC1-7;NC1,2",
  "ReceiveCoilName": "HeadNeck_64",
  "ReconMatrixPE": 104,
  "RepetitionTime": 1.49,
  "SAR": 0.0371175,
  "ScanOptions": "FS",
  "ScanningSequence": "EP",
  "SequenceName": "epfid2d1_104",
  "SequenceVariant": "SK_SS",
  "SeriesDescription": "func_task-shinobi_run-1",
  "SeriesNumber": 9,
  "ShimSetting": [638, -7177, -8858, 612, 84, 53, 16, 1],
  "SliceThickness": 2,
  "SliceTiming": [0, 0.785, 0.1, 0.8825, 0.1975, 0.98, 0.295, 1.08, 0.3925, 1.1775, 0.49, 1.275, 0.59, 1.3725, 0.6875, 0, 0.785, 0.1, 0.8825, 0.1975, 0.98, 0.295, 1.08, 0.3925, 1.1775, 0.49, 1.275, 0.59, 1.3725, 0.6875, 0, 0.785, 0.1, 0.8825, 0.1975, 0.98, 0.295, 1.08, 0.3925, 1.1775, 0.49, 1.275, 0.59, 1.3725, 0.6875, 0, 0.785, 0.1, 0.8825, 0.1975, 0.98, 0.295, 1.08, 0.3925, 1.1775, 0.49, 1.275, 0.59, 1.3725, 0.6875],
  "SoftwareVersions": "syngo_MR_E11",
  "SpacingBetweenSlices": 2,
  "StationName": "MRC35049",
  "TaskName": "shinobi",
  "TotalReadoutTime": 0.0576811,
  "TxRefAmp": 243.409,
  "WipMemBlock": "ecde41e5-a814-418e-8342-0b503f892807||Sequence: R016 ve11c/master r/e634e98; Dec 19 2017 11:00:25 by eja",
  "dcmmeta_affine": [
    [-1.9963550567626953, -0.04495491832494736, 0.11200764775276184, 106.74775695800781],
    [-0.08161908388137817, 1.8701735734939575, -0.7041230797767639, -56.06331253051758],
    [0.08890996873378754, 0.7074108123779297, 1.868599772453308, -66.90802001953125],
    [0.0, 0.0, 0.0, 1.0]
],
  "dcmmeta_reorient_transform": [
    [0.0, -1.0, 0.0, 103.0],
    [1.0, 0.0, 0.0, 0.0],
    [0.0, 0.0, 1.0, 0.0],
    [0.0, 0.0, 0.0, 1.0]
],
  "dcmmeta_shape": [104, 104, 60, 414],
  "dcmmeta_slice_dim": 2,
  "dcmmeta_version": 0.6,
  "global": {
    "const": {
      "AcquisitionMatrix": [104, 0, 0, 104],
      "AngioFlag": "N",
      "BitsAllocated": 16,
      "BitsStored": 16,
      "BodyPartExamined": "BRAIN",
      "Columns": 832,
      "EchoNumbers": 1,
      "EchoTime": 37.0,
      "EchoTrainLength": 104,
      "FlipAngle": 52.0,
      "HighBit": 15,
      "ImageOrientationPatient": [0.99817750706718, 0.04080954287738, 0.04445498391968, -0.0224774599793, 0.93508675955408, -0.3537054083549],
      "ImagePositionPatient": [-812.42703646904, -847.01706990593, 231.08960416773],
      "ImageType": [
        "ORIGINAL",
        "PRIMARY",
        "M",
        "MB",
        "ND",
        "MOSAIC"
],
      "ImagedNucleus": "1H",
      "ImagingFrequency": 123.259316,
      "InPlanePhaseEncodingDirection": "COL",
      "MRAcquisitionType": "2D",
      "MagneticFieldStrength": 3.0,
      "Manufacturer": "SIEMENS",
      "ManufacturerModelName": "Prisma_fit",
      "Modality": "MR",
      "NumberOfAverages": 1.0,
      "NumberOfPhaseEncodingSteps": 104,
      "PercentPhaseFieldOfView": 100.0,
      "PercentSampling": 100.0,
      "PerformedProcedureStepStartTime": "102538.636000",
      "PhotometricInterpretation": "MONOCHROME2",
      "PixelBandwidth": 2290.0,
      "PixelRepresentation": 0,
      "PixelSpacing": [2.0, 2.0],
      "ProtocolName": "func_task-shinobi_run-1",
      "RepetitionTime": 1490.0,
      "Rows": 832,
      "SAR": 0.03711753961825,
      "SamplesPerPixel": 1,
      "ScanOptions": "FS",
      "ScanningSequence": "EP",
      "SequenceName": "epfid2d1_104",
      "SequenceVariant": [
        "SK",
        "SS"
],
      "SeriesDescription": "func_task-shinobi_run-1",
      "SeriesNumber": 9,
      "SeriesTime": "103731.563000",
      "SliceLocation": -36.796134565539,
      "SliceThickness": 2.0,
      "SmallestImagePixelValue": 0,
      "SoftwareVersions": "syngo MR E11",
      "SpacingBetweenSlices": 1.9999999809619,
      "SpecificCharacterSet": "ISO_IR 100",
      "StudyID": "1",
      "StudyTime": "102538.570000",
      "TransmitCoilName": "Body",
      "VariableFlipAngleFlag": "N",
      "WindowCenterWidthExplanation": "Algo1",
      "dBdt": 0.0},
    "slices": {}
  },
  "time": {
    "samples": {
      "AcquisitionNumber": [1, 2, 3, 4, 5, 6, 7, 8, 9, 10, 11, 12, 13, 14, 15, 16, 17, 18, 19, 20, 21, 22, 23, 24, 25, 26, 27, 28, 29, 30, 31, 32, 33, 34, 35, 36, 37, 38, 39, 40, 41, 42, 43, 44, 45, 46, 47, 48, 49, 50, 51, 52, 53, 54, 55, 56, 57, 58, 59, 60, 61, 62, 63, 64, 65, 66, 67, 68, 69, 70, 71, 72, 73, 74, 75, 76, 77, 78, 79, 80, 81, 82, 83, 84, 85, 86, 87, 88, 89, 90, 91, 92, 93, 94, 95, 96, 97, 98, 99, 100, 101, 102, 103, 104, 105, 106, 107, 108, 109, 110, 111, 112, 113, 114, 115, 116, 117, 118, 119, 120, 121, 122, 123, 124, 125, 126, 127, 128, 129, 130, 131, 132, 133, 134, 135, 136, 137, 138, 139, 140, 141, 142, 143, 144, 145, 146, 147, 148, 149, 150, 151, 152, 153, 154, 155, 156, 157, 158, 159, 160, 161, 162, 163, 164, 165, 166, 167, 168, 169, 170, 171, 172, 173, 174, 175, 176, 177, 178, 179, 180, 181, 182, 183, 184, 185, 186, 187, 188, 189, 190, 191, 192, 193, 194, 195, 196, 197, 198, 199, 200, 201, 202, 203, 204, 205, 206, 207, 208, 209, 210, 211, 212, 213, 214, 215, 216, 217, 218, 219, 220, 221, 222, 223, 224, 225, 226, 227, 228, 229, 230, 231, 232, 233, 234, 235, 236, 237, 238, 239, 240, 241, 242, 243, 244, 245, 246, 247, 248, 249, 250, 251, 252, 253, 254, 255, 256, 257, 258, 259, 260, 261, 262, 263, 264, 265, 266, 267, 268, 269, 270, 271, 272, 273, 274, 275, 276, 277, 278, 279, 280, 281, 282, 283, 284, 285, 286, 287, 288, 289, 290, 291, 292, 293, 294, 295, 296, 297, 298, 299, 300, 301, 302, 303, 304, 305, 306, 307, 308, 309, 310, 311, 312, 313, 314, 315, 316, 317, 318, 319, 320, 321, 322, 323, 324, 325, 326, 327, 328, 329, 330, 331, 332, 333, 334, 335, 336, 337, 338, 339, 340, 341, 342, 343, 344, 345, 346, 347, 348, 349, 350, 351, 352, 353, 354, 355, 356, 357, 358, 359, 360, 361, 362, 363, 364, 365, 366, 367, 368, 369, 370, 371, 372, 373, 374, 375, 376, 377, 378, 379, 380, 381, 382, 383, 384, 385, 386, 387, 388, 389, 390, 391, 392, 393, 394, 395, 396, 397, 398, 399, 400, 401, 402, 403, 404, 405, 406, 407, 408, 409, 410, 411, 412, 413, 414],
      "AcquisitionTime": ["103606.580000", "103608.070000", "103609.560000", "103611.050000", "103612.540000", "103614.030000", "103615.520000", "103617.010000", "103618.500000", "103619.990000", "103621.480000", "103622.970000", "103624.460000", "103625.950000", "103627.440000", "103628.930000", "103630.420000", "103631.910000", "103633.400000", "103634.890000", "103636.380000", "103637.870000", "103639.360000", "103640.850000", "103642.340000", "103643.830000", "103645.320000", "103646.810000", "103648.300000", "103649.790000", "103651.280000", "103652.770000", "103654.260000", "103655.750000", "103657.240000", "103658.730000", "103700.220000", "103701.710000", "103703.200000", "103704.690000", "103706.180000", "103707.670000", "103709.160000", "103710.650000", "103712.140000", "103713.630000", "103715.120000", "103716.610000", "103718.100000", "103719.590000", "103721.080000", "103722.570000", "103724.060000", "103725.550000", "103727.040000", "103728.530000", "103730.020000", "103731.510000", "103733.000000", "103734.490000", "103735.980000", "103737.470000", "103738.960000", "103740.450000", "103741.940000", "103743.430000", "103744.920000", "103746.410000", "103747.900000", "103749.390000", "103750.880000", "103752.370000", "103753.860000", "103755.350000", "103756.840000", "103758.330000", "103759.820000", "103801.310000", "103802.800000", "103804.290000", "103805.780000", "103807.270000", "103808.760000", "103810.250000", "103811.740000", "103813.230000", "103814.720000", "103816.210000", "103817.700000", "103819.190000", "103820.680000", "103822.170000", "103823.660000", "103825.150000", "103826.640000", "103828.130000", "103829.620000", "103831.110000", "103832.600000", "103834.090000", "103835.580000", "103837.070000", "103838.560000", "103840.050000", "103841.540000", "103843.030000", "103844.520000", "103846.010000", "103847.500000", "103848.990000", "103850.480000", "103851.970000", "103853.460000", "103854.950000", "103856.440000", "103857.930000", "103859.420000", "103900.910000", "103902.400000", "103903.890000", "103905.380000", "103906.870000", "103908.360000", "103909.850000", "103911.340000", "103912.830000", "103914.320000", "103915.810000", "103917.300000", "103918.790000", "103920.280000", "103921.770000", "103923.260000", "103924.750000", "103926.240000", "103927.730000", "103929.220000", "103930.710000", "103932.200000", "103933.690000", "103935.180000", "103936.670000", "103938.160000", "103939.650000", "103941.140000", "103942.630000", "103944.120000", "103945.610000", "103947.100000", "103948.590000", "103950.080000", "103951.570000", "103953.060000", "103954.550000", "103956.040000", "103957.530000", "103959.020000", "104000.510000", "104002.000000", "104003.490000", "104004.980000", "104006.470000", "104007.960000", "104009.450000", "104010.940000", "104012.430000", "104013.920000", "104015.410000", "104016.900000", "104018.390000", "104019.880000", "104021.370000", "104022.860000", "104024.350000", "104025.840000", "104027.330000", "104028.820000", "104030.310000", "104031.800000", "104033.290000", "104034.780000", "104036.270000", "104037.760000", "104039.250000", "104040.740000", "104042.230000", "104043.720000", "104045.210000", "104046.700000", "104048.190000", "104049.680000", "104051.170000", "104052.660000", "104054.150000", "104055.640000", "104057.130000", "104058.620000", "104100.110000", "104101.600000", "104103.090000", "104104.580000", "104106.070000", "104107.560000", "104109.050000", "104110.540000", "104112.030000", "104113.520000", "104115.010000", "104116.500000", "104117.990000", "104119.480000", "104120.970000", "104122.460000", "104123.950000", "104125.440000", "104126.930000", "104128.420000", "104129.910000", "104131.400000", "104132.890000", "104134.380000", "104135.870000", "104137.360000", "104138.850000", "104140.340000", "104141.830000", "104143.320000", "104144.810000", "104146.300000", "104147.790000", "104149.280000", "104150.770000", "104152.260000", "104153.750000", "104155.240000", "104156.730000", "104158.220000", "104159.710000", "104201.200000", "104202.690000", "104204.180000", "104205.670000", "104207.160000", "104208.650000", "104210.140000", "104211.630000", "104213.120000", "104214.610000", "104216.100000", "104217.590000", "104219.080000", "104220.570000", "104222.060000", "104223.550000", "104225.040000", "104226.530000", "104228.020000", "104229.510000", "104231.000000", "104232.490000", "104233.980000", "104235.470000", "104236.960000", "104238.450000", "104239.940000", "104241.430000", "104242.920000", "104244.410000", "104245.900000", "104247.390000", "104248.880000", "104250.370000", "104251.860000", "104253.350000", "104254.840000", "104256.330000", "104257.820000", "104259.310000", "104300.800000", "104302.290000", "104303.780000", "104305.270000", "104306.760000", "104308.250000", "104309.740000", "104311.230000", "104312.720000", "104314.210000", "104315.700000", "104317.190000", "104318.680000", "104320.170000", "104321.660000", "104323.150000", "104324.640000", "104326.130000", "104327.620000", "104329.110000", "104330.600000", "104332.090000", "104333.580000", "104335.070000", "104336.560000", "104338.050000", "104339.540000", "104341.030000", "104342.520000", "104344.010000", "104345.500000", "104346.990000", "104348.480000", "104349.970000", "104351.460000", "104352.950000", "104354.440000", "104355.930000", "104357.420000", "104358.910000", "104400.400000", "104401.890000", "104403.380000", "104404.870000", "104406.360000", "104407.850000", "104409.340000", "104410.830000", "104412.320000", "104413.810000", "104415.300000", "104416.790000", "104418.280000", "104419.770000", "104421.260000", "104422.750000", "104424.240000", "104425.730000", "104427.220000", "104428.710000", "104430.200000", "104431.690000", "104433.180000", "104434.670000", "104436.160000", "104437.650000", "104439.140000", "104440.630000", "104442.120000", "104443.610000", "104445.100000", "104446.590000", "104448.080000", "104449.570000", "104451.060000", "104452.550000", "104454.040000", "104455.530000", "104457.020000", "104458.510000", "104500.000000", "104501.490000", "104502.980000", "104504.470000", "104505.960000", "104507.450000", "104508.940000", "104510.430000", "104511.920000", "104513.410000", "104514.900000", "104516.390000", "104517.880000", "104519.370000", "104520.860000", "104522.350000", "104523.840000", "104525.330000", "104526.820000", "104528.310000", "104529.800000", "104531.290000", "104532.780000", "104534.270000", "104535.760000", "104537.250000", "104538.740000", "104540.230000", "104541.720000", "104543.210000", "104544.700000", "104546.190000", "104547.680000", "104549.170000", "104550.660000", "104552.150000", "104553.640000", "104555.130000", "104556.620000", "104558.110000", "104559.600000", "104601.090000", "104602.580000", "104604.070000", "104605.560000", "104607.050000", "104608.540000", "104610.030000", "104611.520000", "104613.010000", "104614.500000", "104615.990000", "104617.480000", "104618.970000", "104620.460000", "104621.950000"],
      "ContentTime": ["103731.566000", "103731.569000", "103731.572000", "103731.575000", "103731.578000", "103731.581000", "103731.584000", "103731.587000", "103731.590000", "103731.593000", "103731.596000", "103731.617000", "103731.621000", "103731.624000", "103731.628000", "103731.631000", "103731.634000", "103731.637000", "103731.640000", "103731.643000", "103731.646000", "103731.649000", "103731.651000", "103731.654000", "103731.657000", "103731.660000", "103731.663000", "103731.666000", "103751.538000", "103751.541000", "103751.544000", "103751.547000", "103751.550000", "103751.552000", "103751.555000", "103751.558000", "103751.564000", "103751.567000", "103751.570000", "103751.573000", "103751.576000", "103751.579000", "103751.582000", "103751.585000", "103751.588000", "103751.590000", "103751.593000", "103751.596000", "103751.599000", "103811.538000", "103811.541000", "103811.544000", "103811.547000", "103811.552000", "103811.555000", "103811.558000", "103811.560000", "103811.563000", "103811.566000", "103811.569000", "103811.572000", "103811.575000", "103811.578000", "103811.581000", "103811.584000", "103811.586000", "103811.589000", "103811.592000", "103811.595000", "103831.537000", "103831.540000", "103831.543000", "103831.546000", "103831.549000", "103831.551000", "103831.554000", "103831.557000", "103831.560000", "103831.563000", "103831.566000", "103831.569000", "103831.572000", "103831.575000", "103831.584000", "103831.586000", "103831.589000", "103831.592000", "103831.595000", "103831.598000", "103851.538000", "103851.541000", "103851.544000", "103851.547000", "103851.550000", "103851.552000", "103851.555000", "103851.558000", "103851.561000", "103851.564000", "103851.567000", "103851.570000", "103851.573000", "103851.585000", "103851.588000", "103851.591000", "103851.594000", "103851.597000", "103851.600000", "103851.603000", "103931.538000", "103931.541000", "103931.544000", "103931.547000", "103931.550000", "103931.552000", "103931.555000", "103931.558000", "103931.561000", "103931.564000", "103931.567000", "103931.570000", "103931.573000", "103931.576000", "103931.579000", "103931.581000", "103931.584000", "103931.587000", "103931.596000", "103931.598000", "103931.601000", "103931.604000", "103931.607000", "103931.610000", "103931.613000", "103931.616000", "103931.619000", "103931.622000", "104011.538000", "104011.541000", "104011.544000", "104011.546000", "104011.550000", "104011.552000", "104011.555000", "104011.558000", "104011.561000", "104011.564000", "104011.567000", "104011.570000", "104011.573000", "104011.575000", "104011.578000", "104011.581000", "104011.584000", "104011.587000", "104011.590000", "104011.593000", "104011.596000", "104011.598000", "104011.601000", "104011.604000", "104011.607000", "104011.610000", "104011.613000", "104031.538000", "104031.541000", "104031.544000", "104031.547000", "104031.550000", "104031.553000", "104031.555000", "104031.558000", "104031.561000", "104031.564000", "104031.567000", "104031.571000", "104031.573000", "104111.538000", "104111.541000", "104111.544000", "104111.547000", "104111.550000", "104111.553000", "104111.555000", "104111.558000", "104111.561000", "104111.564000", "104111.567000", "104111.570000", "104111.573000", "104111.576000", "104111.578000", "104111.581000", "104111.584000", "104111.587000", "104111.590000", "104111.593000", "104111.596000", "104111.599000", "104111.601000", "104111.604000", "104111.607000", "104111.610000", "104111.613000", "104151.538000", "104151.541000", "104151.544000", "104151.547000", "104151.564000", "104151.567000", "104151.570000", "104151.573000", "104151.576000", "104151.579000", "104151.581000", "104151.585000", "104151.587000", "104151.590000", "104151.593000", "104151.596000", "104151.599000", "104151.602000", "104151.605000", "104151.607000", "104151.610000", "104151.613000", "104151.616000", "104151.619000", "104151.622000", "104151.625000", "104151.627000", "104231.538000", "104231.541000", "104231.544000", "104231.547000", "104231.549000", "104231.552000", "104231.555000", "104231.558000", "104231.561000", "104231.564000", "104231.567000", "104231.570000", "104231.573000", "104231.575000", "104231.578000", "104231.581000", "104231.584000", "104231.587000", "104231.590000", "104231.593000", "104231.596000", "104231.604000", "104231.607000", "104231.610000", "104231.613000", "104231.616000", "104231.619000", "104311.537000", "104311.540000", "104311.543000", "104311.546000", "104311.550000", "104311.553000", "104311.556000", "104311.559000", "104311.562000", "104311.566000", "104311.569000", "104311.573000", "104311.576000", "104311.579000", "104311.582000", "104311.585000", "104311.588000", "104311.591000", "104311.594000", "104311.596000", "104311.599000", "104311.602000", "104311.605000", "104311.608000", "104311.611000", "104311.614000", "104351.538000", "104351.541000", "104351.544000", "104351.547000", "104351.550000", "104351.552000", "104351.555000", "104351.558000", "104351.561000", "104351.564000", "104351.567000", "104351.570000", "104351.573000", "104351.575000", "104351.578000", "104351.581000", "104351.584000", "104351.587000", "104351.590000", "104351.593000", "104351.596000", "104351.599000", "104351.601000", "104351.604000", "104351.607000", "104351.610000", "104351.613000", "104431.538000", "104431.541000", "104431.544000", "104431.547000", "104431.550000", "104431.553000", "104431.556000", "104431.559000", "104431.561000", "104431.564000", "104431.567000", "104431.570000", "104431.573000", "104431.576000", "104431.579000", "104431.582000", "104431.585000", "104431.587000", "104431.590000", "104431.593000", "104431.596000", "104431.607000", "104431.610000", "104431.613000", "104431.616000", "104431.619000", "104431.622000", "104511.538000", "104511.541000", "104511.544000", "104511.547000", "104511.550000", "104511.553000", "104511.555000", "104511.558000", "104511.561000", "104511.564000", "104511.567000", "104511.570000", "104511.573000", "104511.576000", "104511.579000", "104511.581000", "104511.584000", "104511.587000", "104511.590000", "104511.593000", "104511.596000", "104511.599000", "104511.602000", "104511.604000", "104511.607000", "104511.610000", "104511.613000", "104551.546000", "104551.549000", "104551.552000", "104551.554000", "104551.557000", "104551.560000", "104551.563000", "104551.566000", "104551.569000", "104551.572000", "104551.575000", "104551.578000", "104551.581000", "104551.584000", "104551.586000", "104551.589000", "104551.592000", "104551.595000", "104551.598000", "104551.601000", "104551.604000", "104551.607000", "104551.610000", "104551.612000", "104551.615000", "104551.618000", "104551.621000", "104624.289000", "104624.293000", "104624.296000", "104624.299000", "104624.302000", "104624.305000", "104624.308000", "104624.311000", "104624.314000", "104624.317000", "104624.320000", "104624.323000", "104624.326000", "104624.329000", "104624.332000", "104624.335000", "104624.338000", "104624.341000", "104624.344000", "104624.347000", "104624.350000", "104624.353000"],
      "InstanceCreationTime": ["103731.566000", "103731.569000", "103731.572000", "103731.575000", "103731.578000", "103731.581000", "103731.584000", "103731.587000", "103731.590000", "103731.593000", "103731.596000", "103731.617000", "103731.621000", "103731.624000", "103731.628000", "103731.631000", "103731.634000", "103731.637000", "103731.640000", "103731.643000", "103731.646000", "103731.649000", "103731.651000", "103731.654000", "103731.657000", "103731.660000", "103731.663000", "103731.666000", "103751.538000", "103751.541000", "103751.544000", "103751.547000", "103751.550000", "103751.552000", "103751.555000", "103751.558000", "103751.564000", "103751.567000", "103751.570000", "103751.573000", "103751.576000", "103751.579000", "103751.582000", "103751.585000", "103751.588000", "103751.590000", "103751.593000", "103751.596000", "103751.599000", "103811.538000", "103811.541000", "103811.544000", "103811.547000", "103811.552000", "103811.555000", "103811.558000", "103811.560000", "103811.563000", "103811.566000", "103811.569000", "103811.572000", "103811.575000", "103811.578000", "103811.581000", "103811.584000", "103811.586000", "103811.589000", "103811.592000", "103811.595000", "103831.537000", "103831.540000", "103831.543000", "103831.546000", "103831.549000", "103831.551000", "103831.554000", "103831.557000", "103831.560000", "103831.563000", "103831.566000", "103831.569000", "103831.572000", "103831.575000", "103831.584000", "103831.586000", "103831.589000", "103831.592000", "103831.595000", "103831.598000", "103851.538000", "103851.541000", "103851.544000", "103851.547000", "103851.550000", "103851.552000", "103851.555000", "103851.558000", "103851.561000", "103851.564000", "103851.567000", "103851.570000", "103851.573000", "103851.585000", "103851.588000", "103851.591000", "103851.594000", "103851.597000", "103851.600000", "103851.603000", "103931.538000", "103931.541000", "103931.544000", "103931.547000", "103931.550000", "103931.552000", "103931.555000", "103931.558000", "103931.561000", "103931.564000", "103931.567000", "103931.570000", "103931.573000", "103931.576000", "103931.579000", "103931.581000", "103931.584000", "103931.587000", "103931.596000", "103931.598000", "103931.601000", "103931.604000", "103931.607000", "103931.610000", "103931.613000", "103931.616000", "103931.619000", "103931.622000", "104011.538000", "104011.541000", "104011.544000", "104011.546000", "104011.550000", "104011.552000", "104011.555000", "104011.558000", "104011.561000", "104011.564000", "104011.567000", "104011.570000", "104011.573000", "104011.575000", "104011.578000", "104011.581000", "104011.584000", "104011.587000", "104011.590000", "104011.593000", "104011.596000", "104011.598000", "104011.601000", "104011.604000", "104011.607000", "104011.610000", "104011.613000", "104031.538000", "104031.541000", "104031.544000", "104031.547000", "104031.550000", "104031.553000", "104031.555000", "104031.558000", "104031.561000", "104031.564000", "104031.567000", "104031.571000", "104031.573000", "104111.538000", "104111.541000", "104111.544000", "104111.547000", "104111.550000", "104111.553000", "104111.555000", "104111.558000", "104111.561000", "104111.564000", "104111.567000", "104111.570000", "104111.573000", "104111.576000", "104111.578000", "104111.581000", "104111.584000", "104111.587000", "104111.590000", "104111.593000", "104111.596000", "104111.599000", "104111.601000", "104111.604000", "104111.607000", "104111.610000", "104111.613000", "104151.538000", "104151.541000", "104151.544000", "104151.547000", "104151.564000", "104151.567000", "104151.570000", "104151.573000", "104151.576000", "104151.579000", "104151.581000", "104151.585000", "104151.587000", "104151.590000", "104151.593000", "104151.596000", "104151.599000", "104151.602000", "104151.605000", "104151.607000", "104151.610000", "104151.613000", "104151.616000", "104151.619000", "104151.622000", "104151.625000", "104151.627000", "104231.538000", "104231.541000", "104231.544000", "104231.547000", "104231.549000", "104231.552000", "104231.555000", "104231.558000", "104231.561000", "104231.564000", "104231.567000", "104231.570000", "104231.573000", "104231.575000", "104231.578000", "104231.581000", "104231.584000", "104231.587000", "104231.590000", "104231.593000", "104231.596000", "104231.604000", "104231.607000", "104231.610000", "104231.613000", "104231.616000", "104231.619000", "104311.537000", "104311.540000", "104311.543000", "104311.546000", "104311.550000", "104311.553000", "104311.556000", "104311.559000", "104311.562000", "104311.566000", "104311.569000", "104311.573000", "104311.576000", "104311.579000", "104311.582000", "104311.585000", "104311.588000", "104311.591000", "104311.594000", "104311.596000", "104311.599000", "104311.602000", "104311.605000", "104311.608000", "104311.611000", "104311.614000", "104351.538000", "104351.541000", "104351.544000", "104351.547000", "104351.550000", "104351.552000", "104351.555000", "104351.558000", "104351.561000", "104351.564000", "104351.567000", "104351.570000", "104351.573000", "104351.575000", "104351.578000", "104351.581000", "104351.584000", "104351.587000", "104351.590000", "104351.593000", "104351.596000", "104351.599000", "104351.601000", "104351.604000", "104351.607000", "104351.610000", "104351.613000", "104431.538000", "104431.541000", "104431.544000", "104431.547000", "104431.550000", "104431.553000", "104431.556000", "104431.559000", "104431.561000", "104431.564000", "104431.567000", "104431.570000", "104431.573000", "104431.576000", "104431.579000", "104431.582000", "104431.585000", "104431.587000", "104431.590000", "104431.593000", "104431.596000", "104431.607000", "104431.610000", "104431.613000", "104431.616000", "104431.619000", "104431.622000", "104511.538000", "104511.541000", "104511.544000", "104511.547000", "104511.550000", "104511.553000", "104511.555000", "104511.558000", "104511.561000", "104511.564000", "104511.567000", "104511.570000", "104511.573000", "104511.576000", "104511.579000", "104511.581000", "104511.584000", "104511.587000", "104511.590000", "104511.593000", "104511.596000", "104511.599000", "104511.602000", "104511.604000", "104511.607000", "104511.610000", "104511.613000", "104551.546000", "104551.549000", "104551.552000", "104551.554000", "104551.557000", "104551.560000", "104551.563000", "104551.566000", "104551.569000", "104551.572000", "104551.575000", "104551.578000", "104551.581000", "104551.584000", "104551.586000", "104551.589000", "104551.592000", "104551.595000", "104551.598000", "104551.601000", "104551.604000", "104551.607000", "104551.610000", "104551.612000", "104551.615000", "104551.618000", "104551.621000", "104624.289000", "104624.293000", "104624.296000", "104624.299000", "104624.302000", "104624.305000", "104624.308000", "104624.311000", "104624.314000", "104624.317000", "104624.320000", "104624.323000", "104624.326000", "104624.329000", "104624.332000", "104624.335000", "104624.338000", "104624.341000", "104624.344000", "104624.347000", "104624.350000", "104624.353000"],
