{
  "AcquisitionMatrixPE": 104,
  "AcquisitionNumber": 1,
  "AcquisitionTime": "10:59:19.442500",
  "BandwidthPerPixelPhaseEncode": 17.17,
  "BaseResolution": 104,
  "BodyPartExamined": "BRAIN",
  "CoilString": "HC1-7;NC1_2",
  "ConsistencyInfo": "N4_VE11C_LATEST_20160120",
  "ConversionSoftware": "dcm2niix",
  "ConversionSoftwareVersion": "v1.0.20190902",
  "DerivedVendorReportedEchoSpacing": 0.000560011,
  "DeviceSerialNumber": "167006",
  "DwellTime": 2.1e-06,
  "EchoTime": 0.037,
  "EchoTrainLength": 104,
  "EffectiveEchoSpacing": 0.000560011,
  "FlipAngle": 52,
  "ImageComments": "Unaliased_MB4_PE3_LB",
  "ImageOrientationPatientDICOM": [0.998178, 0.0408095, 0.044455, -0.0224775, 0.935087, -0.353705],
  "ImageType": [
    "ORIGINAL",
    "PRIMARY",
    "M",
    "MB",
    "ND",
    "MOSAIC"
],
  "ImagingFrequency": 123.259,
  "InPlanePhaseEncodingDirectionDICOM": "COL",
  "InstitutionAddress": "Chemin_Queen-Mary_4565_Montreal_District_CA_H3W_1W5",
  "InstitutionName": "IUGM",
  "InstitutionalDepartmentName": "Department",
  "MRAcquisitionType": "2D",
  "MagneticFieldStrength": 3,
  "Manufacturer": "Siemens",
  "ManufacturersModelName": "Prisma_fit",
  "Modality": "MR",
  "MultibandAccelerationFactor": 4,
  "PartialFourier": 1,
  "PatientPosition": "HFS",
  "PercentPhaseFOV": 100,
  "PhaseEncodingDirection": "j",
  "PhaseEncodingSteps": 104,
  "PhaseResolution": 1,
  "PixelBandwidth": 2290,
  "ProcedureStepDescription": "games_shinobi",
  "ProtocolName": "func_task-shinobi_run-3",
  "PulseSequenceDetails": "%CustomerSeq%_cmrr_mbep2d_bold",
  "ReceiveCoilActiveElements": "HC1-7;NC1,2",
  "ReceiveCoilName": "HeadNeck_64",
  "ReconMatrixPE": 104,
  "RepetitionTime": 1.49,
  "SAR": 0.0371175,
  "ScanOptions": "FS",
  "ScanningSequence": "EP",
  "SequenceName": "epfid2d1_104",
  "SequenceVariant": "SK_SS",
  "SeriesDescription": "func_task-shinobi_run-3",
  "SeriesNumber": 13,
  "ShimSetting": [638, -7177, -8858, 612, 84, 53, 16, 1],
  "SliceThickness": 2,
  "SliceTiming": [0, 0.7825, 0.0975, 0.88, 0.195, 0.98, 0.2925, 1.0775, 0.39, 1.175, 0.49, 1.2725, 0.5875, 1.37, 0.685, 0, 0.7825, 0.0975, 0.88, 0.195, 0.98, 0.2925, 1.0775, 0.39, 1.175, 0.49, 1.2725, 0.5875, 1.37, 0.685, 0, 0.7825, 0.0975, 0.88, 0.195, 0.98, 0.2925, 1.0775, 0.39, 1.175, 0.49, 1.2725, 0.5875, 1.37, 0.685, 0, 0.7825, 0.0975, 0.88, 0.195, 0.98, 0.2925, 1.0775, 0.39, 1.175, 0.49, 1.2725, 0.5875, 1.37, 0.685],
  "SoftwareVersions": "syngo_MR_E11",
  "SpacingBetweenSlices": 2,
  "StationName": "MRC35049",
  "TaskName": "shinobi",
  "TotalReadoutTime": 0.0576811,
  "TxRefAmp": 243.409,
  "WipMemBlock": "90574888-3ea3-4697-ac02-9e4ba2de074c||Sequence: R016 ve11c/master r/e634e98; Dec 19 2017 11:00:25 by eja",
  "dcmmeta_affine": [
    [-1.9963550567626953, -0.04495491832494736, 0.11200764775276184, 106.74775695800781],
    [-0.08161908388137817, 1.8701735734939575, -0.7041230797767639, -56.06331253051758],
    [0.08890996873378754, 0.7074108123779297, 1.868599772453308, -66.90802001953125],
    [0.0, 0.0, 0.0, 1.0]
],
  "dcmmeta_reorient_transform": [
    [0.0, -1.0, 0.0, 103.0],
    [1.0, 0.0, 0.0, 0.0],
    [0.0, 0.0, 1.0, 0.0],
    [0.0, 0.0, 0.0, 1.0]
],
  "dcmmeta_shape": [104, 104, 60, 458],
  "dcmmeta_slice_dim": 2,
  "dcmmeta_version": 0.6,
  "global": {
    "const": {
      "AcquisitionMatrix": [104, 0, 0, 104],
      "AngioFlag": "N",
      "BitsAllocated": 16,
      "BitsStored": 16,
      "BodyPartExamined": "BRAIN",
      "Columns": 832,
      "EchoNumbers": 1,
      "EchoTime": 37.0,
      "EchoTrainLength": 104,
      "FlipAngle": 52.0,
      "HighBit": 15,
      "ImageOrientationPatient": [0.99817750706718, 0.04080954287738, 0.04445498391968, -0.0224774599793, 0.93508675955408, -0.3537054083549],
      "ImagePositionPatient": [-812.42703646904, -847.01706990593, 231.08960416773],
      "ImageType": [
        "ORIGINAL",
        "PRIMARY",
        "M",
        "MB",
        "ND",
        "MOSAIC"
],
      "ImagedNucleus": "1H",
      "ImagingFrequency": 123.259328,
      "InPlanePhaseEncodingDirection": "COL",
      "MRAcquisitionType": "2D",
      "MagneticFieldStrength": 3.0,
      "Manufacturer": "SIEMENS",
      "ManufacturerModelName": "Prisma_fit",
      "Modality": "MR",
      "NumberOfAverages": 1.0,
      "NumberOfPhaseEncodingSteps": 104,
      "PercentPhaseFieldOfView": 100.0,
      "PercentSampling": 100.0,
      "PerformedProcedureStepStartTime": "102538.636000",
      "PhotometricInterpretation": "MONOCHROME2",
      "PixelBandwidth": 2290.0,
      "PixelRepresentation": 0,
      "PixelSpacing": [2.0, 2.0],
      "ProtocolName": "func_task-shinobi_run-3",
      "RepetitionTime": 1490.0,
      "Rows": 832,
      "SAR": 0.03711753961825,
      "SamplesPerPixel": 1,
      "ScanOptions": "FS",
      "ScanningSequence": "EP",
      "SequenceName": "epfid2d1_104",
      "SequenceVariant": [
        "SK",
        "SS"
],
      "SeriesDescription": "func_task-shinobi_run-3",
      "SeriesNumber": 13,
      "SeriesTime": "110037.552000",
      "SliceLocation": -36.796134565539,
      "SliceThickness": 2.0,
      "SmallestImagePixelValue": 0,
      "SoftwareVersions": "syngo MR E11",
      "SpacingBetweenSlices": 1.9999999809619,
      "SpecificCharacterSet": "ISO_IR 100",
      "StudyID": "1",
      "StudyTime": "102538.570000",
      "TransmitCoilName": "Body",
      "VariableFlipAngleFlag": "N",
      "WindowCenterWidthExplanation": "Algo1",
      "dBdt": 0.0},
    "slices": {}
  },
  "time": {
    "samples": {
      "AcquisitionNumber": [1, 2, 3, 4, 5, 6, 7, 8, 9, 10, 11, 12, 13, 14, 15, 16, 17, 18, 19, 20, 21, 22, 23, 24, 25, 26, 27, 28, 29, 30, 31, 32, 33, 34, 35, 36, 37, 38, 39, 40, 41, 42, 43, 44, 45, 46, 47, 48, 49, 50, 51, 52, 53, 54, 55, 56, 57, 58, 59, 60, 61, 62, 63, 64, 65, 66, 67, 68, 69, 70, 71, 72, 73, 74, 75, 76, 77, 78, 79, 80, 81, 82, 83, 84, 85, 86, 87, 88, 89, 90, 91, 92, 93, 94, 95, 96, 97, 98, 99, 100, 101, 102, 103, 104, 105, 106, 107, 108, 109, 110, 111, 112, 113, 114, 115, 116, 117, 118, 119, 120, 121, 122, 123, 124, 125, 126, 127, 128, 129, 130, 131, 132, 133, 134, 135, 136, 137, 138, 139, 140, 141, 142, 143, 144, 145, 146, 147, 148, 149, 150, 151, 152, 153, 154, 155, 156, 157, 158, 159, 160, 161, 162, 163, 164, 165, 166, 167, 168, 169, 170, 171, 172, 173, 174, 175, 176, 177, 178, 179, 180, 181, 182, 183, 184, 185, 186, 187, 188, 189, 190, 191, 192, 193, 194, 195, 196, 197, 198, 199, 200, 201, 202, 203, 204, 205, 206, 207, 208, 209, 210, 211, 212, 213, 214, 215, 216, 217, 218, 219, 220, 221, 222, 223, 224, 225, 226, 227, 228, 229, 230, 231, 232, 233, 234, 235, 236, 237, 238, 239, 240, 241, 242, 243, 244, 245, 246, 247, 248, 249, 250, 251, 252, 253, 254, 255, 256, 257, 258, 259, 260, 261, 262, 263, 264, 265, 266, 267, 268, 269, 270, 271, 272, 273, 274, 275, 276, 277, 278, 279, 280, 281, 282, 283, 284, 285, 286, 287, 288, 289, 290, 291, 292, 293, 294, 295, 296, 297, 298, 299, 300, 301, 302, 303, 304, 305, 306, 307, 308, 309, 310, 311, 312, 313, 314, 315, 316, 317, 318, 319, 320, 321, 322, 323, 324, 325, 326, 327, 328, 329, 330, 331, 332, 333, 334, 335, 336, 337, 338, 339, 340, 341, 342, 343, 344, 345, 346, 347, 348, 349, 350, 351, 352, 353, 354, 355, 356, 357, 358, 359, 360, 361, 362, 363, 364, 365, 366, 367, 368, 369, 370, 371, 372, 373, 374, 375, 376, 377, 378, 379, 380, 381, 382, 383, 384, 385, 386, 387, 388, 389, 390, 391, 392, 393, 394, 395, 396, 397, 398, 399, 400, 401, 402, 403, 404, 405, 406, 407, 408, 409, 410, 411, 412, 413, 414, 415, 416, 417, 418, 419, 420, 421, 422, 423, 424, 425, 426, 427, 428, 429, 430, 431, 432, 433, 434, 435, 436, 437, 438, 439, 440, 441, 442, 443, 444, 445, 446, 447, 448, 449, 450, 451, 452, 453, 454, 455, 456, 457, 458],
      "AcquisitionTime": ["105919.442500", "105920.932500", "105922.422500", "105923.912500", "105925.402500", "105926.892500", "105928.382500", "105929.872500", "105931.362500", "105932.852500", "105934.342500", "105935.832500", "105937.322500", "105938.812500", "105940.302500", "105941.792500", "105943.282500", "105944.772500", "105946.262500", "105947.752500", "105949.242500", "105950.732500", "105952.222500", "105953.712500", "105955.202500", "105956.692500", "105958.182500", "105959.672500", "110001.162500", "110002.652500", "110004.142500", "110005.632500", "110007.122500", "110008.612500", "110010.102500", "110011.592500", "110013.082500", "110014.572500", "110016.062500", "110017.552500", "110019.042500", "110020.532500", "110022.022500", "110023.512500", "110025.002500", "110026.492500", "110027.982500", "110029.472500", "110030.962500", "110032.452500", "110033.942500", "110035.432500", "110036.922500", "110038.412500", "110039.902500", "110041.392500", "110042.882500", "110044.372500", "110045.862500", "110047.352500", "110048.842500", "110050.332500", "110051.822500", "110053.312500", "110054.802500", "110056.292500", "110057.782500", "110059.272500", "110100.762500", "110102.252500", "110103.742500", "110105.232500", "110106.722500", "110108.212500", "110109.702500", "110111.192500", "110112.682500", "110114.172500", "110115.662500", "110117.152500", "110118.642500", "110120.132500", "110121.622500", "110123.112500", "110124.602500", "110126.092500", "110127.582500", "110129.072500", "110130.562500", "110132.052500", "110133.542500", "110135.032500", "110136.522500", "110138.012500", "110139.502500", "110140.992500", "110142.482500", "110143.972500", "110145.462500", "110146.952500", "110148.442500", "110149.932500", "110151.422500", "110152.912500", "110154.402500", "110155.892500", "110157.382500", "110158.872500", "110200.362500", "110201.852500", "110203.342500", "110204.832500", "110206.322500", "110207.812500", "110209.302500", "110210.792500", "110212.282500", "110213.772500", "110215.262500", "110216.752500", "110218.242500", "110219.732500", "110221.222500", "110222.712500", "110224.202500", "110225.692500", "110227.182500", "110228.672500", "110230.162500", "110231.652500", "110233.142500", "110234.632500", "110236.122500", "110237.612500", "110239.102500", "110240.592500", "110242.082500", "110243.572500", "110245.062500", "110246.552500", "110248.042500", "110249.532500", "110251.022500", "110252.512500", "110254.002500", "110255.492500", "110256.982500", "110258.472500", "110259.962500", "110301.452500", "110302.942500", "110304.432500", "110305.922500", "110307.412500", "110308.902500", "110310.392500", "110311.882500", "110313.372500", "110314.862500", "110316.352500", "110317.842500", "110319.332500", "110320.822500", "110322.312500", "110323.802500", "110325.292500", "110326.782500", "110328.272500", "110329.762500", "110331.252500", "110332.742500", "110334.232500", "110335.722500", "110337.212500", "110338.702500", "110340.192500", "110341.682500", "110343.172500", "110344.662500", "110346.152500", "110347.642500", "110349.132500", "110350.622500", "110352.112500", "110353.602500", "110355.092500", "110356.582500", "110358.072500", "110359.562500", "110401.052500", "110402.542500", "110404.032500", "110405.522500", "110407.012500", "110408.502500", "110409.992500", "110411.482500", "110412.972500", "110414.462500", "110415.952500", "110417.442500", "110418.932500", "110420.422500", "110421.912500", "110423.402500", "110424.892500", "110426.382500", "110427.872500", "110429.362500", "110430.852500", "110432.342500", "110433.832500", "110435.322500", "110436.812500", "110438.302500", "110439.792500", "110441.282500", "110442.772500", "110444.262500", "110445.752500", "110447.242500", "110448.732500", "110450.222500", "110451.712500", "110453.202500", "110454.692500", "110456.182500", "110457.672500", "110459.162500", "110500.652500", "110502.142500", "110503.632500", "110505.122500", "110506.612500", "110508.102500", "110509.592500", "110511.082500", "110512.572500", "110514.062500", "110515.552500", "110517.042500", "110518.532500", "110520.022500", "110521.512500", "110523.002500", "110524.492500", "110525.982500", "110527.472500", "110528.962500", "110530.452500", "110531.942500", "110533.432500", "110534.922500", "110536.412500", "110537.902500", "110539.392500", "110540.882500", "110542.372500", "110543.862500", "110545.352500", "110546.842500", "110548.332500", "110549.822500", "110551.312500", "110552.802500", "110554.292500", "110555.782500", "110557.272500", "110558.762500", "110600.252500", "110601.742500", "110603.232500", "110604.722500", "110606.212500", "110607.702500", "110609.192500", "110610.682500", "110612.172500", "110613.662500", "110615.152500", "110616.642500", "110618.132500", "110619.622500", "110621.112500", "110622.602500", "110624.092500", "110625.582500", "110627.072500", "110628.562500", "110630.052500", "110631.542500", "110633.032500", "110634.522500", "110636.012500", "110637.502500", "110638.992500", "110640.482500", "110641.972500", "110643.462500", "110644.952500", "110646.442500", "110647.932500", "110649.422500", "110650.912500", "110652.402500", "110653.892500", "110655.382500", "110656.872500", "110658.362500", "110659.852500", "110701.342500", "110702.832500", "110704.322500", "110705.812500", "110707.302500", "110708.792500", "110710.282500", "110711.772500", "110713.262500", "110714.752500", "110716.242500", "110717.732500", "110719.222500", "110720.712500", "110722.202500", "110723.692500", "110725.182500", "110726.672500", "110728.162500", "110729.652500", "110731.142500", "110732.632500", "110734.122500", "110735.612500", "110737.102500", "110738.592500", "110740.082500", "110741.572500", "110743.062500", "110744.552500", "110746.042500", "110747.532500", "110749.022500", "110750.512500", "110752.002500", "110753.492500", "110754.982500", "110756.472500", "110757.962500", "110759.452500", "110800.942500", "110802.432500", "110803.922500", "110805.412500", "110806.902500", "110808.392500", "110809.882500", "110811.372500", "110812.862500", "110814.352500", "110815.842500", "110817.332500", "110818.822500", "110820.312500", "110821.802500", "110823.292500", "110824.782500", "110826.272500", "110827.762500", "110829.252500", "110830.742500", "110832.232500", "110833.722500", "110835.212500", "110836.702500", "110838.192500", "110839.682500", "110841.172500", "110842.662500", "110844.152500", "110845.642500", "110847.132500", "110848.622500", "110850.112500", "110851.602500", "110853.092500", "110854.582500", "110856.072500", "110857.562500", "110859.052500", "110900.542500", "110902.032500", "110903.522500", "110905.012500", "110906.502500", "110907.992500", "110909.482500", "110910.972500", "110912.462500", "110913.952500", "110915.442500", "110916.932500", "110918.422500", "110919.912500", "110921.402500", "110922.892500", "110924.382500", "110925.872500", "110927.362500", "110928.852500", "110930.342500", "110931.832500", "110933.322500", "110934.812500", "110936.302500", "110937.792500", "110939.282500", "110940.772500", "110942.262500", "110943.752500", "110945.242500", "110946.732500", "110948.222500", "110949.712500", "110951.202500", "110952.692500", "110954.182500", "110955.672500", "110957.162500", "110958.652500", "111000.142500", "111001.632500", "111003.122500", "111004.612500", "111006.102500", "111007.592500", "111009.082500", "111010.572500", "111012.062500", "111013.552500", "111015.042500", "111016.532500", "111018.022500", "111019.512500", "111021.002500", "111022.492500", "111023.982500", "111025.472500", "111026.962500", "111028.452500", "111029.942500", "111031.432500", "111032.922500", "111034.412500", "111035.902500", "111037.392500", "111038.882500", "111040.372500"],
      "ContentTime": ["110037.555000", "110037.558000", "110037.561000", "110037.564000", "110037.567000", "110037.570000", "110037.573000", "110037.576000", "110037.579000", "110037.582000", "110037.585000", "110037.587000", "110037.590000", "110037.593000", "110037.605000", "110037.608000", "110037.611000", "110037.613000", "110037.616000", "110037.619000", "110037.622000", "110037.625000", "110037.628000", "110037.631000", "110057.516000", "110057.519000", "110057.521000", "110057.525000", "110057.527000", "110057.530000", "110057.533000", "110057.536000", "110057.539000", "110057.542000", "110057.545000", "110057.547000", "110057.550000", "110057.553000", "110057.556000", "110057.571000", "110057.574000", "110057.577000", "110057.580000", "110057.583000", "110117.515000", "110117.518000", "110117.521000", "110117.524000", "110117.526000", "110117.530000", "110117.532000", "110117.535000", "110117.538000", "110117.541000", "110117.544000", "110117.547000", "110117.550000", "110117.553000", "110117.555000", "110117.559000", "110117.562000", "110117.564000", "110117.567000", "110117.570000", "110117.573000", "110137.515000", "110137.518000", "110137.521000", "110137.523000", "110137.526000", "110137.529000", "110137.532000", "110137.535000", "110137.538000", "110137.541000", "110137.544000", "110137.547000", "110137.550000", "110137.553000", "110137.556000", "110137.558000", "110137.561000", "110137.564000", "110137.567000", "110137.570000", "110157.515000", "110157.518000", "110157.520000", "110157.523000", "110157.526000", "110157.529000", "110157.532000", "110157.535000", "110157.538000", "110157.541000", "110157.543000", "110157.546000", "110157.549000", "110157.552000", "110157.555000", "110157.558000", "110157.561000", "110157.563000", "110157.566000", "110157.569000", "110237.515000", "110237.518000", "110237.527000", "110237.530000", "110237.532000", "110237.535000", "110237.538000", "110237.541000", "110237.544000", "110237.547000", "110237.550000", "110237.553000", "110237.563000", "110237.566000", "110237.569000", "110237.572000", "110237.575000", "110237.578000", "110237.581000", "110237.584000", "110237.587000", "110237.590000", "110237.593000", "110237.595000", "110237.598000", "110237.601000", "110237.604000", "110317.515000", "110317.518000", "110317.521000", "110317.524000", "110317.526000", "110317.529000", "110317.532000", "110317.535000", "110317.538000", "110317.541000", "110317.544000", "110317.547000", "110317.550000", "110317.553000", "110317.556000", "110317.558000", "110317.561000", "110317.564000", "110317.567000", "110317.570000", "110317.573000", "110317.576000", "110317.579000", "110317.582000", "110317.584000", "110317.587000", "110317.590000", "110357.515000", "110357.518000", "110357.521000", "110357.524000", "110357.527000", "110357.529000", "110357.532000", "110357.535000", "110357.538000", "110357.541000", "110357.544000", "110357.547000", "110357.550000", "110357.552000", "110357.555000", "110357.558000", "110357.561000", "110357.564000", "110357.572000", "110357.575000", "110357.578000", "110357.581000", "110357.584000", "110357.586000", "110357.589000", "110357.592000", "110357.595000", "110437.515000", "110437.541000", "110437.544000", "110437.547000", "110437.550000", "110437.553000", "110437.556000", "110437.559000", "110437.562000", "110437.564000", "110437.567000", "110437.570000", "110437.573000", "110437.576000", "110437.579000", "110437.582000", "110437.585000", "110437.588000", "110437.591000", "110437.594000", "110437.597000", "110437.599000", "110437.602000", "110437.605000", "110437.608000", "110437.611000", "110437.614000", "110517.515000", "110517.518000", "110517.521000", "110517.524000", "110517.527000", "110517.530000", "110517.533000", "110517.535000", "110517.538000", "110517.541000", "110517.544000", "110517.547000", "110517.550000", "110517.553000", "110517.557000", "110517.560000", "110517.563000", "110517.566000", "110517.569000", "110517.572000", "110517.575000", "110517.578000", "110517.580000", "110517.583000", "110517.586000", "110517.589000", "110557.515000", "110557.518000", "110557.521000", "110557.524000", "110557.527000", "110557.530000", "110557.533000", "110557.535000", "110557.538000", "110557.541000", "110557.544000", "110557.547000", "110557.550000", "110557.553000", "110557.556000", "110557.559000", "110557.561000", "110557.564000", "110557.567000", "110557.570000", "110557.573000", "110557.576000", "110557.579000", "110557.582000", "110557.585000", "110557.588000", "110557.590000", "110637.515000", "110637.518000", "110637.521000", "110637.524000", "110637.527000", "110637.530000", "110637.532000", "110637.535000", "110637.538000", "110637.541000", "110637.544000", "110637.547000", "110637.550000", "110637.553000", "110637.556000", "110637.559000", "110637.561000", "110637.564000", "110637.567000", "110637.570000", "110637.573000", "110637.576000", "110637.579000", "110637.582000", "110637.585000", "110637.588000", "110637.591000", "110717.516000", "110717.519000", "110717.522000", "110717.525000", "110717.527000", "110717.530000", "110717.533000", "110717.536000", "110717.539000", "110717.542000", "110717.545000", "110717.548000", "110717.551000", "110717.553000", "110717.556000", "110717.559000", "110717.562000", "110717.565000", "110717.568000", "110717.571000", "110717.574000", "110717.577000", "110717.580000", "110717.583000", "110717.586000", "110717.589000", "110717.592000", "110757.515000", "110757.518000", "110757.521000", "110757.524000", "110757.527000", "110757.530000", "110757.533000", "110757.536000", "110757.539000", "110757.542000", "110757.545000", "110757.548000", "110757.550000", "110757.553000", "110757.556000", "110757.559000", "110757.562000", "110757.565000", "110757.568000", "110757.571000", "110757.574000", "110757.577000", "110757.580000", "110757.583000", "110757.586000", "110757.589000", "110757.591000", "110837.515000", "110837.518000", "110837.521000", "110837.524000", "110837.527000", "110837.530000", "110837.533000", "110837.535000", "110837.538000", "110837.541000", "110837.544000", "110837.547000", "110837.550000", "110837.553000", "110837.556000", "110837.559000", "110837.562000", "110837.564000", "110837.567000", "110837.570000", "110837.573000", "110837.576000", "110837.579000", "110837.582000", "110837.585000", "110837.588000", "110837.591000", "110917.515000", "110917.532000", "110917.535000", "110917.538000", "110917.541000", "110917.544000", "110917.547000", "110917.550000", "110917.552000", "110917.556000", "110917.559000", "110917.563000", "110917.567000", "110917.570000", "110917.573000", "110917.576000", "110917.580000", "110917.583000", "110917.586000", "110917.589000", "110917.592000", "110917.595000", "110917.598000", "110917.601000", "110917.604000", "110917.607000", "110957.515000", "110957.518000", "110957.521000", "110957.524000", "110957.527000", "110957.530000", "110957.533000", "110957.535000", "110957.538000", "110957.541000", "110957.544000", "110957.547000", "110957.550000", "110957.553000", "110957.556000", "110957.559000", "110957.562000", "110957.565000", "110957.568000", "110957.570000", "110957.573000", "110957.576000", "110957.579000", "110957.582000", "110957.585000", "110957.588000", "110957.591000", "111037.515000", "111037.518000", "111037.521000", "111037.524000", "111037.527000", "111037.530000", "111037.533000", "111037.536000", "111037.539000", "111037.541000", "111037.544000", "111037.547000", "111037.550000", "111037.553000", "111037.556000", "111037.559000", "111037.562000", "111037.565000", "111037.568000", "111037.571000", "111037.574000", "111037.577000", "111037.580000", "111037.582000", "111037.585000", "111037.588000", "111037.591000", "111043.608000", "111043.611000", "111043.614000", "111043.617000"],
