{
  "AcquisitionMatrixPE": 104,
  "AcquisitionNumber": 1,
  "AcquisitionTime": "13:43:11.947500",
  "BandwidthPerPixelPhaseEncode": 17.17,
  "BaseResolution": 104,
  "BodyPartExamined": "BRAIN",
  "CoilString": "HC1-7;NC1_2",
  "ConsistencyInfo": "N4_VE11C_LATEST_20160120",
  "ConversionSoftware": "dcm2niix",
  "ConversionSoftwareVersion": "v1.0.20190902",
  "DerivedVendorReportedEchoSpacing": 0.000560011,
  "DeviceSerialNumber": "167006",
  "DwellTime": 2.1e-06,
  "EchoTime": 0.037,
  "EchoTrainLength": 104,
  "EffectiveEchoSpacing": 0.000560011,
  "FlipAngle": 52,
  "ImageComments": "Unaliased_MB4_PE3_LB",
  "ImageOrientationPatientDICOM": [0.998784, 0.0323445, -0.037211, -0.039417, 0.97721, -0.208585],
  "ImageType": [
    "ORIGINAL",
    "PRIMARY",
    "M",
    "MB",
    "ND",
    "MOSAIC"
],
  "ImagingFrequency": 123.259,
  "InPlanePhaseEncodingDirectionDICOM": "COL",
  "InstitutionAddress": "Chemin_Queen-Mary_4565_Montreal_District_CA_H3W_1W5",
  "InstitutionName": "IUGM",
  "InstitutionalDepartmentName": "Department",
  "MRAcquisitionType": "2D",
  "MagneticFieldStrength": 3,
  "Manufacturer": "Siemens",
  "ManufacturersModelName": "Prisma_fit",
  "Modality": "MR",
  "MultibandAccelerationFactor": 4,
  "PartialFourier": 1,
  "PatientPosition": "HFS",
  "PercentPhaseFOV": 100,
  "PhaseEncodingDirection": "j",
  "PhaseEncodingSteps": 104,
  "PhaseResolution": 1,
  "PixelBandwidth": 2290,
  "ProcedureStepDescription": "games_shinobi",
  "ProtocolName": "func_task-shinobi_run-3",
  "PulseSequenceDetails": "%CustomerSeq%_cmrr_mbep2d_bold",
  "ReceiveCoilActiveElements": "HC1-7;NC1,2",
  "ReceiveCoilName": "HeadNeck_64",
  "ReconMatrixPE": 104,
  "RepetitionTime": 1.49,
  "SAR": 0.028816,
  "ScanOptions": "FS",
  "ScanningSequence": "EP",
  "SequenceName": "epfid2d1_104",
  "SequenceVariant": "SK_SS",
  "SeriesDescription": "func_task-shinobi_run-3",
  "SeriesNumber": 15,
  "ShimSetting": [598, -7258, -8836, 606, -52, -313, 28, 57],
  "SliceThickness": 2,
  "SliceTiming": [0, 0.785, 0.0975, 0.8825, 0.195, 0.98, 0.295, 1.0775, 0.3925, 1.175, 0.49, 1.2725, 0.5875, 1.3725, 0.685, 0, 0.785, 0.0975, 0.8825, 0.195, 0.98, 0.295, 1.0775, 0.3925, 1.175, 0.49, 1.2725, 0.5875, 1.3725, 0.685, 0, 0.785, 0.0975, 0.8825, 0.195, 0.98, 0.295, 1.0775, 0.3925, 1.175, 0.49, 1.2725, 0.5875, 1.3725, 0.685, 0, 0.785, 0.0975, 0.8825, 0.195, 0.98, 0.295, 1.0775, 0.3925, 1.175, 0.49, 1.2725, 0.5875, 1.3725, 0.685],
  "SoftwareVersions": "syngo_MR_E11",
  "SpacingBetweenSlices": 2,
  "StationName": "MRC35049",
  "TaskName": "shinobi",
  "TotalReadoutTime": 0.0576811,
  "TxRefAmp": 216.036,
  "WipMemBlock": "d9e17056-2318-436c-a648-1f9f49ef6f2a||Sequence: R016 ve11c/master r/e634e98; Dec 19 2017 11:00:25 by eja",
  "dcmmeta_affine": [
    [-1.9975676536560059, -0.07883396744728088, -0.05923270061612129, 109.11802673339844],
    [-0.06468908488750458, 1.9544192552566528, -0.41959598660469055, -70.91895294189453],
    [-0.0744219720363617, 0.41716983914375305, 1.954592227935791, -48.3197135925293],
    [0.0, 0.0, 0.0, 1.0]
],
  "dcmmeta_reorient_transform": [
    [0.0, -1.0, 0.0, 103.0],
    [1.0, 0.0, 0.0, 0.0],
    [0.0, 0.0, 1.0, 0.0],
    [0.0, 0.0, 0.0, 1.0]
],
  "dcmmeta_shape": [104, 104, 60, 469],
  "dcmmeta_slice_dim": 2,
  "dcmmeta_version": 0.6,
  "global": {
    "const": {
      "AcquisitionMatrix": [104, 0, 0, 104],
      "AngioFlag": "N",
      "BitsAllocated": 16,
      "BitsStored": 16,
      "BodyPartExamined": "BRAIN",
      "Columns": 832,
      "EchoNumbers": 1,
      "EchoTime": 37.0,
      "EchoTrainLength": 104,
      "FlipAngle": 52.0,
      "HighBit": 15,
      "ImageOrientationPatient": [0.99878384709372, 0.03234454124126, -0.0372109854284, -0.0394169840392, 0.97720961662301, -0.2085849144803],
      "ImagePositionPatient": [-799.41720488528, -865.34165463421, 173.5881929813],
      "ImageType": [
        "ORIGINAL",
        "PRIMARY",
        "M",
        "MB",
        "ND",
        "MOSAIC"
],
      "ImagedNucleus": "1H",
      "ImagingFrequency": 123.259,
      "InPlanePhaseEncodingDirection": "COL",
      "MRAcquisitionType": "2D",
      "MagneticFieldStrength": 3.0,
      "Manufacturer": "SIEMENS",
      "ManufacturerModelName": "Prisma_fit",
      "Modality": "MR",
      "NumberOfAverages": 1.0,
      "NumberOfPhaseEncodingSteps": 104,
      "PercentPhaseFieldOfView": 100.0,
      "PercentSampling": 100.0,
      "PerformedProcedureStepStartTime": "120739.680000",
      "PhotometricInterpretation": "MONOCHROME2",
      "PixelBandwidth": 2290.0,
      "PixelRepresentation": 0,
      "PixelSpacing": [2.0, 2.0],
      "ProtocolName": "func_task-shinobi_run-3",
      "RepetitionTime": 1490.0,
      "Rows": 832,
      "SAR": 0.02881599043873,
      "SamplesPerPixel": 1,
      "ScanOptions": "FS",
      "ScanningSequence": "EP",
      "SequenceName": "epfid2d1_104",
      "SequenceVariant": [
        "SK",
        "SS"
],
      "SeriesDescription": "func_task-shinobi_run-3",
      "SeriesNumber": 15,
      "SeriesTime": "134434.587000",
      "SliceLocation": -35.575692688292,
      "SliceThickness": 2.0,
      "SmallestImagePixelValue": 0,
      "SoftwareVersions": "syngo MR E11",
      "SpacingBetweenSlices": 1.9999999978012,
      "SpecificCharacterSet": "ISO_IR 100",
      "StudyID": "1",
      "StudyTime": "120739.622000",
      "TransmitCoilName": "Body",
      "VariableFlipAngleFlag": "N",
      "WindowCenterWidthExplanation": "Algo1",
      "dBdt": 0.0},
    "slices": {}
  },
  "time": {
    "samples": {
      "AcquisitionNumber": [1, 2, 3, 4, 5, 6, 7, 8, 9, 10, 11, 12, 13, 14, 15, 16, 17, 18, 19, 20, 21, 22, 23, 24, 25, 26, 27, 28, 29, 30, 31, 32, 33, 34, 35, 36, 37, 38, 39, 40, 41, 42, 43, 44, 45, 46, 47, 48, 49, 50, 51, 52, 53, 54, 55, 56, 57, 58, 59, 60, 61, 62, 63, 64, 65, 66, 67, 68, 69, 70, 71, 72, 73, 74, 75, 76, 77, 78, 79, 80, 81, 82, 83, 84, 85, 86, 87, 88, 89, 90, 91, 92, 93, 94, 95, 96, 97, 98, 99, 100, 101, 102, 103, 104, 105, 106, 107, 108, 109, 110, 111, 112, 113, 114, 115, 116, 117, 118, 119, 120, 121, 122, 123, 124, 125, 126, 127, 128, 129, 130, 131, 132, 133, 134, 135, 136, 137, 138, 139, 140, 141, 142, 143, 144, 145, 146, 147, 148, 149, 150, 151, 152, 153, 154, 155, 156, 157, 158, 159, 160, 161, 162, 163, 164, 165, 166, 167, 168, 169, 170, 171, 172, 173, 174, 175, 176, 177, 178, 179, 180, 181, 182, 183, 184, 185, 186, 187, 188, 189, 190, 191, 192, 193, 194, 195, 196, 197, 198, 199, 200, 201, 202, 203, 204, 205, 206, 207, 208, 209, 210, 211, 212, 213, 214, 215, 216, 217, 218, 219, 220, 221, 222, 223, 224, 225, 226, 227, 228, 229, 230, 231, 232, 233, 234, 235, 236, 237, 238, 239, 240, 241, 242, 243, 244, 245, 246, 247, 248, 249, 250, 251, 252, 253, 254, 255, 256, 257, 258, 259, 260, 261, 262, 263, 264, 265, 266, 267, 268, 269, 270, 271, 272, 273, 274, 275, 276, 277, 278, 279, 280, 281, 282, 283, 284, 285, 286, 287, 288, 289, 290, 291, 292, 293, 294, 295, 296, 297, 298, 299, 300, 301, 302, 303, 304, 305, 306, 307, 308, 309, 310, 311, 312, 313, 314, 315, 316, 317, 318, 319, 320, 321, 322, 323, 324, 325, 326, 327, 328, 329, 330, 331, 332, 333, 334, 335, 336, 337, 338, 339, 340, 341, 342, 343, 344, 345, 346, 347, 348, 349, 350, 351, 352, 353, 354, 355, 356, 357, 358, 359, 360, 361, 362, 363, 364, 365, 366, 367, 368, 369, 370, 371, 372, 373, 374, 375, 376, 377, 378, 379, 380, 381, 382, 383, 384, 385, 386, 387, 388, 389, 390, 391, 392, 393, 394, 395, 396, 397, 398, 399, 400, 401, 402, 403, 404, 405, 406, 407, 408, 409, 410, 411, 412, 413, 414, 415, 416, 417, 418, 419, 420, 421, 422, 423, 424, 425, 426, 427, 428, 429, 430, 431, 432, 433, 434, 435, 436, 437, 438, 439, 440, 441, 442, 443, 444, 445, 446, 447, 448, 449, 450, 451, 452, 453, 454, 455, 456, 457, 458, 459, 460, 461, 462, 463, 464, 465, 466, 467, 468, 469],
      "AcquisitionTime": ["134311.947500", "134313.437500", "134314.927500", "134316.417500", "134317.907500", "134319.397500", "134320.887500", "134322.377500", "134323.867500", "134325.357500", "134326.847500", "134328.337500", "134329.827500", "134331.317500", "134332.807500", "134334.297500", "134335.787500", "134337.277500", "134338.767500", "134340.257500", "134341.747500", "134343.237500", "134344.727500", "134346.217500", "134347.707500", "134349.197500", "134350.687500", "134352.177500", "134353.667500", "134355.157500", "134356.647500", "134358.137500", "134359.627500", "134401.117500", "134402.607500", "134404.097500", "134405.587500", "134407.077500", "134408.567500", "134410.057500", "134411.547500", "134413.037500", "134414.527500", "134416.017500", "134417.507500", "134418.997500", "134420.487500", "134421.977500", "134423.467500", "134424.957500", "134426.447500", "134427.937500", "134429.427500", "134430.917500", "134432.407500", "134433.897500", "134435.387500", "134436.877500", "134438.367500", "134439.857500", "134441.347500", "134442.837500", "134444.327500", "134445.817500", "134447.307500", "134448.797500", "134450.287500", "134451.777500", "134453.267500", "134454.757500", "134456.247500", "134457.737500", "134459.227500", "134500.717500", "134502.207500", "134503.697500", "134505.187500", "134506.677500", "134508.167500", "134509.657500", "134511.147500", "134512.637500", "134514.127500", "134515.617500", "134517.107500", "134518.597500", "134520.087500", "134521.577500", "134523.067500", "134524.557500", "134526.047500", "134527.537500", "134529.027500", "134530.517500", "134532.007500", "134533.497500", "134534.987500", "134536.477500", "134537.967500", "134539.457500", "134540.947500", "134542.437500", "134543.927500", "134545.417500", "134546.907500", "134548.397500", "134549.887500", "134551.377500", "134552.867500", "134554.357500", "134555.847500", "134557.337500", "134558.827500", "134600.317500", "134601.807500", "134603.297500", "134604.787500", "134606.277500", "134607.767500", "134609.257500", "134610.747500", "134612.237500", "134613.727500", "134615.217500", "134616.707500", "134618.197500", "134619.687500", "134621.177500", "134622.667500", "134624.157500", "134625.647500", "134627.137500", "134628.627500", "134630.117500", "134631.607500", "134633.097500", "134634.587500", "134636.077500", "134637.567500", "134639.057500", "134640.547500", "134642.037500", "134643.527500", "134645.017500", "134646.507500", "134647.997500", "134649.487500", "134650.977500", "134652.467500", "134653.957500", "134655.447500", "134656.937500", "134658.427500", "134659.917500", "134701.407500", "134702.897500", "134704.387500", "134705.877500", "134707.367500", "134708.857500", "134710.347500", "134711.837500", "134713.327500", "134714.817500", "134716.307500", "134717.797500", "134719.287500", "134720.777500", "134722.267500", "134723.757500", "134725.247500", "134726.737500", "134728.227500", "134729.717500", "134731.207500", "134732.697500", "134734.187500", "134735.677500", "134737.167500", "134738.657500", "134740.147500", "134741.637500", "134743.127500", "134744.617500", "134746.107500", "134747.597500", "134749.087500", "134750.577500", "134752.067500", "134753.557500", "134755.047500", "134756.537500", "134758.027500", "134759.517500", "134801.007500", "134802.497500", "134803.987500", "134805.477500", "134806.967500", "134808.457500", "134809.947500", "134811.437500", "134812.927500", "134814.417500", "134815.907500", "134817.397500", "134818.887500", "134820.377500", "134821.867500", "134823.357500", "134824.847500", "134826.337500", "134827.827500", "134829.317500", "134830.807500", "134832.297500", "134833.787500", "134835.277500", "134836.767500", "134838.257500", "134839.747500", "134841.237500", "134842.727500", "134844.217500", "134845.707500", "134847.197500", "134848.687500", "134850.177500", "134851.667500", "134853.157500", "134854.647500", "134856.137500", "134857.627500", "134859.117500", "134900.607500", "134902.097500", "134903.587500", "134905.077500", "134906.567500", "134908.057500", "134909.547500", "134911.037500", "134912.527500", "134914.017500", "134915.507500", "134916.997500", "134918.487500", "134919.977500", "134921.467500", "134922.957500", "134924.447500", "134925.937500", "134927.427500", "134928.917500", "134930.407500", "134931.897500", "134933.387500", "134934.877500", "134936.367500", "134937.857500", "134939.347500", "134940.837500", "134942.327500", "134943.817500", "134945.307500", "134946.797500", "134948.287500", "134949.777500", "134951.267500", "134952.757500", "134954.247500", "134955.737500", "134957.227500", "134958.717500", "135000.207500", "135001.697500", "135003.187500", "135004.677500", "135006.167500", "135007.657500", "135009.147500", "135010.637500", "135012.127500", "135013.617500", "135015.107500", "135016.597500", "135018.087500", "135019.577500", "135021.067500", "135022.557500", "135024.047500", "135025.537500", "135027.027500", "135028.517500", "135030.007500", "135031.497500", "135032.987500", "135034.477500", "135035.967500", "135037.457500", "135038.947500", "135040.437500", "135041.927500", "135043.417500", "135044.907500", "135046.397500", "135047.887500", "135049.377500", "135050.867500", "135052.357500", "135053.847500", "135055.337500", "135056.827500", "135058.317500", "135059.807500", "135101.297500", "135102.787500", "135104.277500", "135105.767500", "135107.257500", "135108.747500", "135110.237500", "135111.727500", "135113.217500", "135114.707500", "135116.197500", "135117.687500", "135119.177500", "135120.667500", "135122.157500", "135123.647500", "135125.137500", "135126.627500", "135128.117500", "135129.607500", "135131.097500", "135132.587500", "135134.077500", "135135.567500", "135137.057500", "135138.547500", "135140.037500", "135141.527500", "135143.017500", "135144.507500", "135145.997500", "135147.487500", "135148.977500", "135150.467500", "135151.957500", "135153.447500", "135154.937500", "135156.427500", "135157.917500", "135159.407500", "135200.897500", "135202.387500", "135203.877500", "135205.367500", "135206.857500", "135208.347500", "135209.837500", "135211.327500", "135212.817500", "135214.307500", "135215.797500", "135217.287500", "135218.777500", "135220.267500", "135221.757500", "135223.247500", "135224.737500", "135226.227500", "135227.717500", "135229.207500", "135230.697500", "135232.187500", "135233.677500", "135235.167500", "135236.657500", "135238.147500", "135239.637500", "135241.127500", "135242.617500", "135244.107500", "135245.597500", "135247.087500", "135248.577500", "135250.067500", "135251.557500", "135253.047500", "135254.537500", "135256.027500", "135257.517500", "135259.007500", "135300.497500", "135301.987500", "135303.477500", "135304.967500", "135306.457500", "135307.947500", "135309.437500", "135310.927500", "135312.417500", "135313.907500", "135315.397500", "135316.887500", "135318.377500", "135319.867500", "135321.357500", "135322.847500", "135324.337500", "135325.827500", "135327.317500", "135328.807500", "135330.297500", "135331.787500", "135333.277500", "135334.767500", "135336.257500", "135337.747500", "135339.237500", "135340.727500", "135342.217500", "135343.707500", "135345.197500", "135346.687500", "135348.177500", "135349.667500", "135351.157500", "135352.647500", "135354.137500", "135355.627500", "135357.117500", "135358.607500", "135400.097500", "135401.587500", "135403.077500", "135404.567500", "135406.057500", "135407.547500", "135409.037500", "135410.527500", "135412.017500", "135413.507500", "135414.997500", "135416.487500", "135417.977500", "135419.467500", "135420.957500", "135422.447500", "135423.937500", "135425.427500", "135426.917500", "135428.407500", "135429.897500", "135431.387500", "135432.877500", "135434.367500", "135435.857500", "135437.347500", "135438.837500", "135440.327500", "135441.817500", "135443.307500", "135444.797500", "135446.287500", "135447.777500", "135449.267500"],
      "ContentTime": ["134434.589000", "134434.593000", "134434.596000", "134434.599000", "134434.602000", "134434.609000", "134434.612000", "134434.620000", "134434.623000", "134434.626000", "134434.629000", "134434.632000", "134434.635000", "134434.638000", "134434.641000", "134434.644000", "134434.647000", "134434.650000", "134434.653000", "134434.656000", "134434.659000", "134434.662000", "134434.666000", "134434.672000", "134434.675000", "134434.678000", "134434.681000", "134434.684000", "134434.687000", "134454.562000", "134454.565000", "134454.568000", "134454.571000", "134454.574000", "134454.577000", "134454.580000", "134454.583000", "134454.586000", "134454.589000", "134454.592000", "134454.595000", "134454.598000", "134454.601000", "134454.604000", "134454.610000", "134454.613000", "134454.616000", "134454.619000", "134454.622000", "134514.562000", "134514.565000", "134514.568000", "134514.571000", "134514.574000", "134514.577000", "134514.580000", "134514.583000", "134514.586000", "134514.589000", "134514.592000", "134514.595000", "134514.598000", "134514.601000", "134514.604000", "134514.612000", "134514.615000", "134514.618000", "134514.621000", "134514.624000", "134534.563000", "134534.566000", "134534.569000", "134534.572000", "134534.575000", "134534.578000", "134534.589000", "134534.592000", "134534.595000", "134534.598000", "134534.601000", "134534.604000", "134534.607000", "134534.610000", "134534.613000", "134534.616000", "134534.619000", "134534.622000", "134534.625000", "134534.628000", "134534.631000", "134614.563000", "134614.566000", "134614.569000", "134614.572000", "134614.575000", "134614.578000", "134614.581000", "134614.584000", "134614.587000", "134614.590000", "134614.593000", "134614.596000", "134614.599000", "134614.602000", "134614.605000", "134614.608000", "134614.611000", "134614.614000", "134614.624000", "134614.627000", "134614.630000", "134614.634000", "134614.637000", "134614.640000", "134614.643000", "134614.646000", "134614.649000", "134614.652000", "134614.655000", "134614.658000", "134614.661000", "134654.563000", "134654.566000", "134654.569000", "134654.572000", "134654.575000", "134654.578000", "134654.581000", "134654.584000", "134654.587000", "134654.590000", "134654.593000", "134654.596000", "134654.599000", "134654.602000", "134654.605000", "134654.608000", "134654.611000", "134654.614000", "134654.617000", "134654.620000", "134654.623000", "134654.633000", "134654.636000", "134654.639000", "134654.642000", "134654.645000", "134654.648000", "134734.562000", "134734.565000", "134734.568000", "134734.571000", "134734.574000", "134734.577000", "134734.580000", "134734.583000", "134734.586000", "134734.589000", "134734.592000", "134734.595000", "134734.598000", "134734.601000", "134734.604000", "134734.607000", "134734.610000", "134734.613000", "134734.616000", "134734.619000", "134734.622000", "134734.630000", "134734.633000", "134734.636000", "134734.639000", "134734.642000", "134734.645000", "134814.563000", "134814.566000", "134814.569000", "134814.572000", "134814.575000", "134814.578000", "134814.581000", "134814.584000", "134814.587000", "134814.590000", "134814.593000", "134814.596000", "134814.599000", "134814.602000", "134814.605000", "134814.608000", "134814.611000", "134814.614000", "134814.617000", "134814.620000", "134814.623000", "134814.626000", "134814.629000", "134814.632000", "134814.635000", "134814.638000", "134814.641000", "134854.563000", "134854.566000", "134854.569000", "134854.572000", "134854.575000", "134854.578000", "134854.581000", "134854.584000", "134854.587000", "134854.590000", "134854.593000", "134854.605000", "134854.609000", "134854.611000", "134854.614000", "134854.617000", "134854.620000", "134854.623000", "134854.626000", "134854.629000", "134854.632000", "134854.635000", "134854.638000", "134854.641000", "134854.644000", "134854.647000", "134854.650000", "134934.562000", "134934.565000", "134934.568000", "134934.571000", "134934.574000", "134934.577000", "134934.580000", "134934.583000", "134934.586000", "134934.589000", "134934.592000", "134934.595000", "134934.598000", "134934.601000", "134934.604000", "134934.607000", "134934.610000", "134934.613000", "134934.616000", "134934.619000", "134934.622000", "134934.625000", "134934.628000", "134934.631000", "134934.634000", "134934.637000", "134934.640000", "135014.563000", "135014.566000", "135014.574000", "135014.577000", "135014.580000", "135014.583000", "135014.586000", "135014.589000", "135014.592000", "135014.595000", "135014.598000", "135014.601000", "135014.604000", "135014.607000", "135014.610000", "135014.613000", "135014.616000", "135014.619000", "135014.622000", "135014.625000", "135014.628000", "135014.631000", "135014.634000", "135014.637000", "135014.640000", "135014.643000", "135014.646000", "135054.563000", "135054.566000", "135054.569000", "135054.572000", "135054.575000", "135054.578000", "135054.581000", "135054.584000", "135054.587000", "135054.590000", "135054.593000", "135054.596000", "135054.599000", "135054.602000", "135054.605000", "135054.609000", "135054.612000", "135054.615000", "135054.618000", "135054.621000", "135054.624000", "135054.627000", "135054.630000", "135054.633000", "135054.636000", "135054.639000", "135134.563000", "135134.566000", "135134.569000", "135134.572000", "135134.575000", "135134.578000", "135134.581000", "135134.584000", "135134.587000", "135134.590000", "135134.593000", "135134.596000", "135134.599000", "135134.602000", "135134.605000", "135134.608000", "135134.611000", "135134.627000", "135134.630000", "135134.633000", "135134.636000", "135134.639000", "135134.642000", "135134.645000", "135134.648000", "135134.651000", "135134.654000", "135214.562000", "135214.565000", "135214.568000", "135214.571000", "135214.574000", "135214.577000", "135214.580000", "135214.583000", "135214.586000", "135214.589000", "135214.592000", "135214.595000", "135214.598000", "135214.601000", "135214.604000", "135214.607000", "135214.610000", "135214.613000", "135214.616000", "135214.619000", "135214.622000", "135214.625000", "135214.628000", "135214.631000", "135214.634000", "135214.637000", "135214.640000", "135254.563000", "135254.566000", "135254.569000", "135254.572000", "135254.575000", "135254.578000", "135254.581000", "135254.584000", "135254.587000", "135254.590000", "135254.593000", "135254.596000", "135254.599000", "135254.602000", "135254.605000", "135254.608000", "135254.611000", "135254.614000", "135254.617000", "135254.620000", "135254.623000", "135254.626000", "135254.629000", "135254.632000", "135254.635000", "135254.638000", "135254.641000", "135334.563000", "135334.566000", "135334.569000", "135334.572000", "135334.575000", "135334.578000", "135334.581000", "135334.584000", "135334.587000", "135334.590000", "135334.593000", "135334.596000", "135334.599000", "135334.602000", "135334.605000", "135334.608000", "135334.611000", "135334.614000", "135334.617000", "135334.620000", "135334.623000", "135334.626000", "135334.629000", "135334.632000", "135334.635000", "135334.638000", "135334.641000", "135414.562000", "135414.565000", "135414.568000", "135414.572000", "135414.574000", "135414.577000", "135414.580000", "135414.583000", "135414.586000", "135414.589000", "135414.592000", "135414.595000", "135414.598000", "135414.601000", "135414.604000", "135414.607000", "135414.610000", "135414.613000", "135414.616000", "135414.619000", "135414.622000", "135414.625000", "135414.628000", "135414.631000", "135414.634000", "135414.637000", "135414.640000", "135451.984000", "135451.987000", "135451.994000", "135451.997000", "135452.001000", "135452.004000", "135452.007000", "135452.010000", "135452.013000", "135452.016000", "135452.023000", "135452.026000", "135452.029000", "135452.032000", "135452.035000", "135452.038000", "135452.041000", "135452.044000", "135452.047000", "135452.050000", "135452.053000", "135452.056000", "135452.059000", "135452.062000", "135452.065000"],
