{
  "AcquisitionMatrixPE": 104,
  "AcquisitionNumber": 1,
  "AcquisitionTime": "13:30:55.345000",
  "BandwidthPerPixelPhaseEncode": 17.17,
  "BaseResolution": 104,
  "BodyPartExamined": "BRAIN",
  "CoilString": "HC1-7;NC1_2",
  "ConsistencyInfo": "N4_VE11C_LATEST_20160120",
  "ConversionSoftware": "dcm2niix",
  "ConversionSoftwareVersion": "v1.0.20190902",
  "DerivedVendorReportedEchoSpacing": 0.000560011,
  "DeviceSerialNumber": "167006",
  "DwellTime": 2.1e-06,
  "EchoTime": 0.037,
  "EchoTrainLength": 104,
  "EffectiveEchoSpacing": 0.000560011,
  "FlipAngle": 52,
  "ImageComments": "Unaliased_MB4_PE3_LB",
  "ImageOrientationPatientDICOM": [0.998784, 0.0323445, -0.037211, -0.039417, 0.97721, -0.208585],
  "ImageType": [
    "ORIGINAL",
    "PRIMARY",
    "M",
    "MB",
    "ND",
    "MOSAIC"
],
  "ImagingFrequency": 123.259,
  "InPlanePhaseEncodingDirectionDICOM": "COL",
  "InstitutionAddress": "Chemin_Queen-Mary_4565_Montreal_District_CA_H3W_1W5",
  "InstitutionName": "IUGM",
  "InstitutionalDepartmentName": "Department",
  "MRAcquisitionType": "2D",
  "MagneticFieldStrength": 3,
  "Manufacturer": "Siemens",
  "ManufacturersModelName": "Prisma_fit",
  "Modality": "MR",
  "MultibandAccelerationFactor": 4,
  "PartialFourier": 1,
  "PatientPosition": "HFS",
  "PercentPhaseFOV": 100,
  "PhaseEncodingDirection": "j",
  "PhaseEncodingSteps": 104,
  "PhaseResolution": 1,
  "PixelBandwidth": 2290,
  "ProcedureStepDescription": "games_shinobi",
  "ProtocolName": "func_task-shinobi_run-2",
  "PulseSequenceDetails": "%CustomerSeq%_cmrr_mbep2d_bold",
  "ReceiveCoilActiveElements": "HC1-7;NC1,2",
  "ReceiveCoilName": "HeadNeck_64",
  "ReconMatrixPE": 104,
  "RepetitionTime": 1.49,
  "SAR": 0.028816,
  "ScanOptions": "FS",
  "ScanningSequence": "EP",
  "SequenceName": "epfid2d1_104",
  "SequenceVariant": "SK_SS",
  "SeriesDescription": "func_task-shinobi_run-2",
  "SeriesNumber": 13,
  "ShimSetting": [598, -7258, -8836, 606, -52, -313, 28, 57],
  "SliceThickness": 2,
  "SliceTiming": [0, 0.7825, 0.0975, 0.8825, 0.195, 0.98, 0.2925, 1.0775, 0.3925, 1.175, 0.49, 1.2725, 0.5875, 1.3725, 0.685, 0, 0.7825, 0.0975, 0.8825, 0.195, 0.98, 0.2925, 1.0775, 0.3925, 1.175, 0.49, 1.2725, 0.5875, 1.3725, 0.685, 0, 0.7825, 0.0975, 0.8825, 0.195, 0.98, 0.2925, 1.0775, 0.3925, 1.175, 0.49, 1.2725, 0.5875, 1.3725, 0.685, 0, 0.7825, 0.0975, 0.8825, 0.195, 0.98, 0.2925, 1.0775, 0.3925, 1.175, 0.49, 1.2725, 0.5875, 1.3725, 0.685],
  "SoftwareVersions": "syngo_MR_E11",
  "SpacingBetweenSlices": 2,
  "StationName": "MRC35049",
  "TaskName": "shinobi",
  "TotalReadoutTime": 0.0576811,
  "TxRefAmp": 216.036,
  "WipMemBlock": "2f0f94fb-7032-470e-bac2-2688aefc2c02||Sequence: R016 ve11c/master r/e634e98; Dec 19 2017 11:00:25 by eja",
  "dcmmeta_affine": [
    [-1.9975676536560059, -0.07883396744728088, -0.05923270061612129, 109.11802673339844],
    [-0.06468908488750458, 1.9544192552566528, -0.41959598660469055, -70.91895294189453],
    [-0.0744219720363617, 0.41716983914375305, 1.954592227935791, -48.3197135925293],
    [0.0, 0.0, 0.0, 1.0]
],
  "dcmmeta_reorient_transform": [
    [0.0, -1.0, 0.0, 103.0],
    [1.0, 0.0, 0.0, 0.0],
    [0.0, 0.0, 1.0, 0.0],
    [0.0, 0.0, 0.0, 1.0]
],
  "dcmmeta_shape": [104, 104, 60, 460],
  "dcmmeta_slice_dim": 2,
  "dcmmeta_version": 0.6,
  "global": {
    "const": {
      "AcquisitionMatrix": [104, 0, 0, 104],
      "AngioFlag": "N",
      "BitsAllocated": 16,
      "BitsStored": 16,
      "BodyPartExamined": "BRAIN",
      "Columns": 832,
      "EchoNumbers": 1,
      "EchoTime": 37.0,
      "EchoTrainLength": 104,
      "FlipAngle": 52.0,
      "HighBit": 15,
      "ImageOrientationPatient": [0.99878384709372, 0.03234454124126, -0.0372109854284, -0.0394169840392, 0.97720961662301, -0.2085849144803],
      "ImagePositionPatient": [-799.41720488528, -865.34165463421, 173.5881929813],
      "ImageType": [
        "ORIGINAL",
        "PRIMARY",
        "M",
        "MB",
        "ND",
        "MOSAIC"
],
      "ImagedNucleus": "1H",
      "ImagingFrequency": 123.258994,
      "InPlanePhaseEncodingDirection": "COL",
      "MRAcquisitionType": "2D",
      "MagneticFieldStrength": 3.0,
      "Manufacturer": "SIEMENS",
      "ManufacturerModelName": "Prisma_fit",
      "Modality": "MR",
      "NumberOfAverages": 1.0,
      "NumberOfPhaseEncodingSteps": 104,
      "PercentPhaseFieldOfView": 100.0,
      "PercentSampling": 100.0,
      "PerformedProcedureStepStartTime": "120739.680000",
      "PhotometricInterpretation": "MONOCHROME2",
      "PixelBandwidth": 2290.0,
      "PixelRepresentation": 0,
      "PixelSpacing": [2.0, 2.0],
      "ProtocolName": "func_task-shinobi_run-2",
      "RepetitionTime": 1490.0,
      "Rows": 832,
      "SAR": 0.02881599043873,
      "SamplesPerPixel": 1,
      "ScanOptions": "FS",
      "ScanningSequence": "EP",
      "SequenceName": "epfid2d1_104",
      "SequenceVariant": [
        "SK",
        "SS"
],
      "SeriesDescription": "func_task-shinobi_run-2",
      "SeriesNumber": 13,
      "SeriesTime": "133219.845000",
      "SliceLocation": -35.575692688292,
      "SliceThickness": 2.0,
      "SmallestImagePixelValue": 0,
      "SoftwareVersions": "syngo MR E11",
      "SpacingBetweenSlices": 1.9999999978012,
      "SpecificCharacterSet": "ISO_IR 100",
      "StudyID": "1",
      "StudyTime": "120739.622000",
      "TransmitCoilName": "Body",
      "VariableFlipAngleFlag": "N",
      "WindowCenterWidthExplanation": "Algo1",
      "dBdt": 0.0},
    "slices": {}
  },
  "time": {
    "samples": {
      "AcquisitionNumber": [1, 2, 3, 4, 5, 6, 7, 8, 9, 10, 11, 12, 13, 14, 15, 16, 17, 18, 19, 20, 21, 22, 23, 24, 25, 26, 27, 28, 29, 30, 31, 32, 33, 34, 35, 36, 37, 38, 39, 40, 41, 42, 43, 44, 45, 46, 47, 48, 49, 50, 51, 52, 53, 54, 55, 56, 57, 58, 59, 60, 61, 62, 63, 64, 65, 66, 67, 68, 69, 70, 71, 72, 73, 74, 75, 76, 77, 78, 79, 80, 81, 82, 83, 84, 85, 86, 87, 88, 89, 90, 91, 92, 93, 94, 95, 96, 97, 98, 99, 100, 101, 102, 103, 104, 105, 106, 107, 108, 109, 110, 111, 112, 113, 114, 115, 116, 117, 118, 119, 120, 121, 122, 123, 124, 125, 126, 127, 128, 129, 130, 131, 132, 133, 134, 135, 136, 137, 138, 139, 140, 141, 142, 143, 144, 145, 146, 147, 148, 149, 150, 151, 152, 153, 154, 155, 156, 157, 158, 159, 160, 161, 162, 163, 164, 165, 166, 167, 168, 169, 170, 171, 172, 173, 174, 175, 176, 177, 178, 179, 180, 181, 182, 183, 184, 185, 186, 187, 188, 189, 190, 191, 192, 193, 194, 195, 196, 197, 198, 199, 200, 201, 202, 203, 204, 205, 206, 207, 208, 209, 210, 211, 212, 213, 214, 215, 216, 217, 218, 219, 220, 221, 222, 223, 224, 225, 226, 227, 228, 229, 230, 231, 232, 233, 234, 235, 236, 237, 238, 239, 240, 241, 242, 243, 244, 245, 246, 247, 248, 249, 250, 251, 252, 253, 254, 255, 256, 257, 258, 259, 260, 261, 262, 263, 264, 265, 266, 267, 268, 269, 270, 271, 272, 273, 274, 275, 276, 277, 278, 279, 280, 281, 282, 283, 284, 285, 286, 287, 288, 289, 290, 291, 292, 293, 294, 295, 296, 297, 298, 299, 300, 301, 302, 303, 304, 305, 306, 307, 308, 309, 310, 311, 312, 313, 314, 315, 316, 317, 318, 319, 320, 321, 322, 323, 324, 325, 326, 327, 328, 329, 330, 331, 332, 333, 334, 335, 336, 337, 338, 339, 340, 341, 342, 343, 344, 345, 346, 347, 348, 349, 350, 351, 352, 353, 354, 355, 356, 357, 358, 359, 360, 361, 362, 363, 364, 365, 366, 367, 368, 369, 370, 371, 372, 373, 374, 375, 376, 377, 378, 379, 380, 381, 382, 383, 384, 385, 386, 387, 388, 389, 390, 391, 392, 393, 394, 395, 396, 397, 398, 399, 400, 401, 402, 403, 404, 405, 406, 407, 408, 409, 410, 411, 412, 413, 414, 415, 416, 417, 418, 419, 420, 421, 422, 423, 424, 425, 426, 427, 428, 429, 430, 431, 432, 433, 434, 435, 436, 437, 438, 439, 440, 441, 442, 443, 444, 445, 446, 447, 448, 449, 450, 451, 452, 453, 454, 455, 456, 457, 458, 459, 460],
      "AcquisitionTime": ["133055.345000", "133056.835000", "133058.325000", "133059.815000", "133101.305000", "133102.795000", "133104.285000", "133105.775000", "133107.265000", "133108.755000", "133110.245000", "133111.735000", "133113.225000", "133114.715000", "133116.205000", "133117.695000", "133119.185000", "133120.675000", "133122.165000", "133123.655000", "133125.145000", "133126.635000", "133128.125000", "133129.615000", "133131.105000", "133132.595000", "133134.085000", "133135.575000", "133137.065000", "133138.555000", "133140.045000", "133141.535000", "133143.025000", "133144.515000", "133146.005000", "133147.495000", "133148.985000", "133150.475000", "133151.965000", "133153.455000", "133154.945000", "133156.435000", "133157.925000", "133159.415000", "133200.905000", "133202.395000", "133203.885000", "133205.375000", "133206.865000", "133208.355000", "133209.845000", "133211.335000", "133212.825000", "133214.315000", "133215.805000", "133217.295000", "133218.785000", "133220.275000", "133221.765000", "133223.255000", "133224.745000", "133226.235000", "133227.725000", "133229.215000", "133230.705000", "133232.195000", "133233.685000", "133235.175000", "133236.665000", "133238.155000", "133239.645000", "133241.135000", "133242.625000", "133244.115000", "133245.605000", "133247.095000", "133248.585000", "133250.075000", "133251.565000", "133253.055000", "133254.545000", "133256.035000", "133257.525000", "133259.015000", "133300.505000", "133301.995000", "133303.485000", "133304.975000", "133306.465000", "133307.955000", "133309.445000", "133310.935000", "133312.425000", "133313.915000", "133315.405000", "133316.895000", "133318.385000", "133319.875000", "133321.365000", "133322.855000", "133324.345000", "133325.835000", "133327.325000", "133328.815000", "133330.305000", "133331.795000", "133333.285000", "133334.775000", "133336.265000", "133337.755000", "133339.245000", "133340.735000", "133342.225000", "133343.715000", "133345.205000", "133346.695000", "133348.185000", "133349.675000", "133351.165000", "133352.655000", "133354.145000", "133355.635000", "133357.125000", "133358.615000", "133400.105000", "133401.595000", "133403.085000", "133404.575000", "133406.065000", "133407.555000", "133409.045000", "133410.535000", "133412.025000", "133413.515000", "133415.005000", "133416.495000", "133417.985000", "133419.475000", "133420.965000", "133422.455000", "133423.945000", "133425.435000", "133426.925000", "133428.415000", "133429.905000", "133431.395000", "133432.885000", "133434.375000", "133435.865000", "133437.355000", "133438.845000", "133440.335000", "133441.825000", "133443.315000", "133444.805000", "133446.295000", "133447.785000", "133449.275000", "133450.765000", "133452.255000", "133453.745000", "133455.235000", "133456.725000", "133458.215000", "133459.705000", "133501.195000", "133502.685000", "133504.175000", "133505.665000", "133507.155000", "133508.645000", "133510.135000", "133511.625000", "133513.115000", "133514.605000", "133516.095000", "133517.585000", "133519.075000", "133520.565000", "133522.055000", "133523.545000", "133525.035000", "133526.525000", "133528.015000", "133529.505000", "133530.995000", "133532.485000", "133533.975000", "133535.465000", "133536.955000", "133538.445000", "133539.935000", "133541.425000", "133542.915000", "133544.405000", "133545.895000", "133547.385000", "133548.875000", "133550.365000", "133551.855000", "133553.345000", "133554.835000", "133556.325000", "133557.815000", "133559.305000", "133600.795000", "133602.285000", "133603.775000", "133605.265000", "133606.755000", "133608.245000", "133609.735000", "133611.225000", "133612.715000", "133614.205000", "133615.695000", "133617.185000", "133618.675000", "133620.165000", "133621.655000", "133623.145000", "133624.635000", "133626.125000", "133627.615000", "133629.105000", "133630.595000", "133632.085000", "133633.575000", "133635.065000", "133636.555000", "133638.045000", "133639.535000", "133641.025000", "133642.515000", "133644.005000", "133645.495000", "133646.985000", "133648.475000", "133649.965000", "133651.455000", "133652.945000", "133654.435000", "133655.925000", "133657.415000", "133658.905000", "133700.395000", "133701.885000", "133703.375000", "133704.865000", "133706.355000", "133707.845000", "133709.335000", "133710.825000", "133712.315000", "133713.805000", "133715.295000", "133716.785000", "133718.275000", "133719.765000", "133721.255000", "133722.745000", "133724.235000", "133725.725000", "133727.215000", "133728.705000", "133730.195000", "133731.685000", "133733.175000", "133734.665000", "133736.155000", "133737.645000", "133739.135000", "133740.625000", "133742.115000", "133743.605000", "133745.095000", "133746.585000", "133748.075000", "133749.565000", "133751.055000", "133752.545000", "133754.035000", "133755.525000", "133757.015000", "133758.505000", "133759.995000", "133801.485000", "133802.975000", "133804.465000", "133805.955000", "133807.445000", "133808.935000", "133810.425000", "133811.915000", "133813.405000", "133814.895000", "133816.385000", "133817.875000", "133819.365000", "133820.855000", "133822.345000", "133823.835000", "133825.325000", "133826.815000", "133828.305000", "133829.795000", "133831.285000", "133832.775000", "133834.265000", "133835.755000", "133837.245000", "133838.735000", "133840.225000", "133841.715000", "133843.205000", "133844.695000", "133846.185000", "133847.675000", "133849.165000", "133850.655000", "133852.145000", "133853.635000", "133855.125000", "133856.615000", "133858.105000", "133859.595000", "133901.085000", "133902.575000", "133904.065000", "133905.555000", "133907.045000", "133908.535000", "133910.025000", "133911.515000", "133913.005000", "133914.495000", "133915.985000", "133917.475000", "133918.965000", "133920.455000", "133921.945000", "133923.435000", "133924.925000", "133926.415000", "133927.905000", "133929.395000", "133930.885000", "133932.375000", "133933.865000", "133935.355000", "133936.845000", "133938.335000", "133939.825000", "133941.315000", "133942.805000", "133944.295000", "133945.785000", "133947.275000", "133948.765000", "133950.255000", "133951.745000", "133953.235000", "133954.725000", "133956.215000", "133957.705000", "133959.195000", "134000.685000", "134002.175000", "134003.665000", "134005.155000", "134006.645000", "134008.135000", "134009.625000", "134011.115000", "134012.605000", "134014.095000", "134015.585000", "134017.075000", "134018.565000", "134020.055000", "134021.545000", "134023.035000", "134024.525000", "134026.015000", "134027.505000", "134028.995000", "134030.485000", "134031.975000", "134033.465000", "134034.955000", "134036.445000", "134037.935000", "134039.425000", "134040.915000", "134042.405000", "134043.895000", "134045.385000", "134046.875000", "134048.365000", "134049.855000", "134051.345000", "134052.835000", "134054.325000", "134055.815000", "134057.305000", "134058.795000", "134100.285000", "134101.775000", "134103.265000", "134104.755000", "134106.245000", "134107.735000", "134109.225000", "134110.715000", "134112.205000", "134113.695000", "134115.185000", "134116.675000", "134118.165000", "134119.655000", "134121.145000", "134122.635000", "134124.125000", "134125.615000", "134127.105000", "134128.595000", "134130.085000", "134131.575000", "134133.065000", "134134.555000", "134136.045000", "134137.535000", "134139.025000", "134140.515000", "134142.005000", "134143.495000", "134144.985000", "134146.475000", "134147.965000", "134149.455000", "134150.945000", "134152.435000", "134153.925000", "134155.415000", "134156.905000", "134158.395000", "134159.885000", "134201.375000", "134202.865000", "134204.355000", "134205.845000", "134207.335000", "134208.825000", "134210.315000", "134211.805000", "134213.295000", "134214.785000", "134216.275000", "134217.765000", "134219.255000"],
      "ContentTime": ["133219.848000", "133219.851000", "133219.854000", "133219.861000", "133219.864000", "133219.867000", "133219.870000", "133219.873000", "133219.876000", "133219.879000", "133219.882000", "133219.885000", "133219.888000", "133219.891000", "133219.894000", "133219.897000", "133219.900000", "133219.903000", "133219.906000", "133219.910000", "133219.921000", "133219.924000", "133219.927000", "133219.930000", "133219.933000", "133219.937000", "133219.940000", "133219.943000", "133219.946000", "133219.949000", "133219.952000", "133219.955000", "133239.781000", "133239.784000", "133239.787000", "133239.790000", "133239.793000", "133239.796000", "133239.813000", "133239.816000", "133239.827000", "133239.830000", "133239.832000", "133239.835000", "133239.838000", "133239.841000", "133239.844000", "133239.847000", "133239.850000", "133239.853000", "133239.856000", "133239.859000", "133239.862000", "133259.780000", "133259.783000", "133259.786000", "133259.789000", "133259.792000", "133259.795000", "133259.798000", "133259.801000", "133259.804000", "133259.807000", "133259.810000", "133259.813000", "133259.816000", "133259.819000", "133259.821000", "133259.825000", "133259.827000", "133259.830000", "133259.833000", "133259.837000", "133319.781000", "133319.784000", "133319.787000", "133319.790000", "133319.793000", "133319.796000", "133319.799000", "133319.802000", "133319.805000", "133319.808000", "133319.811000", "133319.814000", "133319.817000", "133319.820000", "133319.823000", "133319.826000", "133319.829000", "133319.832000", "133319.835000", "133319.838000", "133359.781000", "133359.784000", "133359.787000", "133359.790000", "133359.793000", "133359.796000", "133359.799000", "133359.802000", "133359.805000", "133359.808000", "133359.811000", "133359.814000", "133359.817000", "133359.820000", "133359.823000", "133359.826000", "133359.829000", "133359.832000", "133359.835000", "133359.838000", "133359.841000", "133359.844000", "133359.847000", "133359.850000", "133359.853000", "133359.856000", "133359.859000", "133359.862000", "133359.865000", "133359.868000", "133439.781000", "133439.784000", "133439.791000", "133439.794000", "133439.797000", "133439.800000", "133439.803000", "133439.806000", "133439.809000", "133439.812000", "133439.815000", "133439.818000", "133439.821000", "133439.824000", "133439.827000", "133439.830000", "133439.833000", "133439.836000", "133439.839000", "133439.842000", "133439.845000", "133439.848000", "133439.851000", "133439.854000", "133439.857000", "133439.860000", "133439.863000", "133519.780000", "133519.783000", "133519.786000", "133519.789000", "133519.792000", "133519.795000", "133519.798000", "133519.801000", "133519.804000", "133519.807000", "133519.810000", "133519.813000", "133519.816000", "133519.819000", "133519.822000", "133519.825000", "133519.828000", "133519.831000", "133519.834000", "133519.837000", "133519.840000", "133519.843000", "133519.846000", "133519.849000", "133519.852000", "133519.855000", "133559.781000", "133559.875000", "133559.878000", "133559.881000", "133559.884000", "133559.887000", "133559.890000", "133559.893000", "133559.896000", "133559.899000", "133559.902000", "133559.905000", "133559.908000", "133559.911000", "133559.914000", "133559.917000", "133559.920000", "133559.923000", "133559.926000", "133559.929000", "133559.932000", "133559.935000", "133559.938000", "133559.940000", "133559.944000", "133559.946000", "133559.949000", "133639.781000", "133639.784000", "133639.787000", "133639.790000", "133639.793000", "133639.796000", "133639.799000", "133639.802000", "133639.805000", "133639.808000", "133639.811000", "133639.814000", "133639.817000", "133639.820000", "133639.823000", "133639.826000", "133639.829000", "133639.832000", "133639.835000", "133639.838000", "133639.841000", "133639.844000", "133639.847000", "133639.850000", "133639.853000", "133639.856000", "133639.859000", "133719.781000", "133719.784000", "133719.787000", "133719.790000", "133719.811000", "133719.814000", "133719.817000", "133719.820000", "133719.823000", "133719.826000", "133719.829000", "133719.832000", "133719.835000", "133719.838000", "133719.841000", "133719.844000", "133719.847000", "133719.850000", "133719.859000", "133719.862000", "133719.865000", "133719.868000", "133719.871000", "133719.874000", "133719.877000", "133719.880000", "133719.883000", "133759.781000", "133759.784000", "133759.787000", "133759.790000", "133759.793000", "133759.796000", "133759.799000", "133759.802000", "133759.805000", "133759.808000", "133759.811000", "133759.814000", "133759.817000", "133759.820000", "133759.823000", "133759.826000", "133759.829000", "133759.832000", "133759.835000", "133759.838000", "133759.841000", "133759.844000", "133759.847000", "133759.850000", "133759.853000", "133759.856000", "133759.859000", "133839.781000", "133839.784000", "133839.787000", "133839.790000", "133839.793000", "133839.796000", "133839.799000", "133839.802000", "133839.805000", "133839.808000", "133839.811000", "133839.814000", "133839.817000", "133839.820000", "133839.823000", "133839.826000", "133839.829000", "133839.832000", "133839.835000", "133839.838000", "133839.841000", "133839.844000", "133839.847000", "133839.850000", "133839.853000", "133839.856000", "133839.859000", "133859.781000", "133859.784000", "133859.787000", "133859.790000", "133859.793000", "133859.796000", "133859.799000", "133859.802000", "133859.805000", "133859.808000", "133859.811000", "133859.814000", "133859.817000", "133939.781000", "133939.784000", "133939.787000", "133939.790000", "133939.793000", "133939.796000", "133939.799000", "133939.802000", "133939.805000", "133939.808000", "133939.811000", "133939.814000", "133939.817000", "133939.820000", "133939.823000", "133939.826000", "133939.829000", "133939.832000", "133939.835000", "133939.838000", "133939.841000", "133939.844000", "133939.847000", "133939.850000", "133939.853000", "133939.856000", "133939.859000", "134019.781000", "134019.784000", "134019.787000", "134019.790000", "134019.793000", "134019.796000", "134019.799000", "134019.802000", "134019.805000", "134019.808000", "134019.811000", "134019.814000", "134019.817000", "134019.820000", "134019.823000", "134019.826000", "134019.829000", "134019.832000", "134019.835000", "134019.838000", "134019.841000", "134019.844000", "134019.847000", "134019.850000", "134019.853000", "134019.856000", "134019.859000", "134059.781000", "134059.784000", "134059.787000", "134059.790000", "134059.793000", "134059.796000", "134059.799000", "134059.802000", "134059.805000", "134059.808000", "134059.811000", "134059.814000", "134059.817000", "134059.820000", "134059.823000", "134059.826000", "134059.829000", "134059.832000", "134059.835000", "134059.838000", "134059.846000", "134059.849000", "134059.852000", "134059.855000", "134059.858000", "134059.861000", "134059.864000", "134139.781000", "134139.884000", "134139.887000", "134139.890000", "134139.893000", "134139.896000", "134139.899000", "134139.902000", "134139.905000", "134139.908000", "134139.911000", "134139.914000", "134139.917000", "134139.930000", "134139.933000", "134139.936000", "134139.939000", "134139.942000", "134139.945000", "134139.948000", "134139.951000", "134139.954000", "134139.957000", "134139.960000", "134139.962000", "134139.966000", "134219.780000", "134219.783000", "134219.786000", "134219.789000", "134219.792000", "134219.795000", "134219.798000", "134219.801000", "134219.804000", "134219.807000", "134219.810000", "134219.813000", "134219.816000", "134219.819000", "134219.822000", "134219.825000", "134219.828000", "134219.831000", "134219.834000", "134219.837000", "134219.840000", "134219.843000", "134219.846000", "134219.849000", "134219.852000", "134219.855000", "134219.858000", "134222.554000", "134222.557000"],
