{
  "AcquisitionMatrixPE": 104,
  "AcquisitionNumber": 1,
  "AcquisitionTime": "14:07:43.222500",
  "BandwidthPerPixelPhaseEncode": 17.17,
  "BaseResolution": 104,
  "BodyPartExamined": "BRAIN",
  "CoilString": "HC1-7;NC1_2",
  "ConsistencyInfo": "N4_VE11C_LATEST_20160120",
  "ConversionSoftware": "dcm2niix",
  "ConversionSoftwareVersion": "v1.0.20190902",
  "DerivedVendorReportedEchoSpacing": 0.000560011,
  "DeviceSerialNumber": "167006",
  "DwellTime": 2.1e-06,
  "EchoTime": 0.037,
  "EchoTrainLength": 104,
  "EffectiveEchoSpacing": 0.000560011,
  "FlipAngle": 52,
  "ImageComments": "Unaliased_MB4_PE3_LB",
  "ImageOrientationPatientDICOM": [0.998784, 0.0323445, -0.037211, -0.039417, 0.97721, -0.208585],
  "ImageType": [
    "ORIGINAL",
    "PRIMARY",
    "M",
    "MB",
    "ND",
    "MOSAIC"
],
  "ImagingFrequency": 123.259,
  "InPlanePhaseEncodingDirectionDICOM": "COL",
  "InstitutionAddress": "Chemin_Queen-Mary_4565_Montreal_District_CA_H3W_1W5",
  "InstitutionName": "IUGM",
  "InstitutionalDepartmentName": "Department",
  "MRAcquisitionType": "2D",
  "MagneticFieldStrength": 3,
  "Manufacturer": "Siemens",
  "ManufacturersModelName": "Prisma_fit",
  "Modality": "MR",
  "MultibandAccelerationFactor": 4,
  "PartialFourier": 1,
  "PatientPosition": "HFS",
  "PercentPhaseFOV": 100,
  "PhaseEncodingDirection": "j",
  "PhaseEncodingSteps": 104,
  "PhaseResolution": 1,
  "PixelBandwidth": 2290,
  "ProcedureStepDescription": "games_shinobi",
  "ProtocolName": "func_task-shinobi_run-5",
  "PulseSequenceDetails": "%CustomerSeq%_cmrr_mbep2d_bold",
  "ReceiveCoilActiveElements": "HC1-7;NC1,2",
  "ReceiveCoilName": "HeadNeck_64",
  "ReconMatrixPE": 104,
  "RepetitionTime": 1.49,
  "SAR": 0.028816,
  "ScanOptions": "FS",
  "ScanningSequence": "EP",
  "SequenceName": "epfid2d1_104",
  "SequenceVariant": "SK_SS",
  "SeriesDescription": "func_task-shinobi_run-5",
  "SeriesNumber": 19,
  "ShimSetting": [598, -7258, -8836, 606, -52, -313, 28, 57],
  "SliceThickness": 2,
  "SliceTiming": [0, 0.785, 0.0975, 0.8825, 0.195, 0.98, 0.295, 1.0775, 0.3925, 1.175, 0.49, 1.275, 0.5875, 1.3725, 0.685, 0, 0.785, 0.0975, 0.8825, 0.195, 0.98, 0.295, 1.0775, 0.3925, 1.175, 0.49, 1.275, 0.5875, 1.3725, 0.685, 0, 0.785, 0.0975, 0.8825, 0.195, 0.98, 0.295, 1.0775, 0.3925, 1.175, 0.49, 1.275, 0.5875, 1.3725, 0.685, 0, 0.785, 0.0975, 0.8825, 0.195, 0.98, 0.295, 1.0775, 0.3925, 1.175, 0.49, 1.275, 0.5875, 1.3725, 0.685],
  "SoftwareVersions": "syngo_MR_E11",
  "SpacingBetweenSlices": 2,
  "StationName": "MRC35049",
  "TaskName": "shinobi",
  "TotalReadoutTime": 0.0576811,
  "TxRefAmp": 216.036,
  "WipMemBlock": "1c8d8de3-135b-4c1b-a09b-009b02c91f84||Sequence: R016 ve11c/master r/e634e98; Dec 19 2017 11:00:25 by eja",
  "dcmmeta_affine": [
    [-1.9975676536560059, -0.07883396744728088, -0.05923270061612129, 109.11802673339844],
    [-0.06468908488750458, 1.9544192552566528, -0.41959598660469055, -70.91895294189453],
    [-0.0744219720363617, 0.41716983914375305, 1.954592227935791, -48.3197135925293],
    [0.0, 0.0, 0.0, 1.0]
],
  "dcmmeta_reorient_transform": [
    [0.0, -1.0, 0.0, 103.0],
    [1.0, 0.0, 0.0, 0.0],
    [0.0, 0.0, 1.0, 0.0],
    [0.0, 0.0, 0.0, 1.0]
],
  "dcmmeta_shape": [104, 104, 60, 530],
  "dcmmeta_slice_dim": 2,
  "dcmmeta_version": 0.6,
  "global": {
    "const": {
      "AcquisitionMatrix": [104, 0, 0, 104],
      "AngioFlag": "N",
      "BitsAllocated": 16,
      "BitsStored": 16,
      "BodyPartExamined": "BRAIN",
      "Columns": 832,
      "EchoNumbers": 1,
      "EchoTime": 37.0,
      "EchoTrainLength": 104,
      "FlipAngle": 52.0,
      "HighBit": 15,
      "ImageOrientationPatient": [0.99878384709372, 0.03234454124126, -0.0372109854284, -0.0394169840392, 0.97720961662301, -0.2085849144803],
      "ImagePositionPatient": [-799.41720488528, -865.34165463421, 173.5881929813],
      "ImageType": [
        "ORIGINAL",
        "PRIMARY",
        "M",
        "MB",
        "ND",
        "MOSAIC"
],
      "ImagedNucleus": "1H",
      "ImagingFrequency": 123.259007,
      "InPlanePhaseEncodingDirection": "COL",
      "MRAcquisitionType": "2D",
      "MagneticFieldStrength": 3.0,
      "Manufacturer": "SIEMENS",
      "ManufacturerModelName": "Prisma_fit",
      "Modality": "MR",
      "NumberOfAverages": 1.0,
      "NumberOfPhaseEncodingSteps": 104,
      "PercentPhaseFieldOfView": 100.0,
      "PercentSampling": 100.0,
      "PerformedProcedureStepStartTime": "120739.680000",
      "PhotometricInterpretation": "MONOCHROME2",
      "PixelBandwidth": 2290.0,
      "PixelRepresentation": 0,
      "PixelSpacing": [2.0, 2.0],
      "ProtocolName": "func_task-shinobi_run-5",
      "RepetitionTime": 1490.0,
      "Rows": 832,
      "SAR": 0.02881599043873,
      "SamplesPerPixel": 1,
      "ScanOptions": "FS",
      "ScanningSequence": "EP",
      "SequenceName": "epfid2d1_104",
      "SequenceVariant": [
        "SK",
        "SS"
],
      "SeriesDescription": "func_task-shinobi_run-5",
      "SeriesNumber": 19,
      "SeriesTime": "140859.811000",
      "SliceLocation": -35.575692688292,
      "SliceThickness": 2.0,
      "SmallestImagePixelValue": 0,
      "SoftwareVersions": "syngo MR E11",
      "SpacingBetweenSlices": 1.9999999978012,
      "SpecificCharacterSet": "ISO_IR 100",
      "StudyID": "1",
      "StudyTime": "120739.622000",
      "TransmitCoilName": "Body",
      "VariableFlipAngleFlag": "N",
      "WindowCenterWidthExplanation": "Algo1",
      "dBdt": 0.0},
    "slices": {}
  },
  "time": {
    "samples": {
      "AcquisitionNumber": [1, 2, 3, 4, 5, 6, 7, 8, 9, 10, 11, 12, 13, 14, 15, 16, 17, 18, 19, 20, 21, 22, 23, 24, 25, 26, 27, 28, 29, 30, 31, 32, 33, 34, 35, 36, 37, 38, 39, 40, 41, 42, 43, 44, 45, 46, 47, 48, 49, 50, 51, 52, 53, 54, 55, 56, 57, 58, 59, 60, 61, 62, 63, 64, 65, 66, 67, 68, 69, 70, 71, 72, 73, 74, 75, 76, 77, 78, 79, 80, 81, 82, 83, 84, 85, 86, 87, 88, 89, 90, 91, 92, 93, 94, 95, 96, 97, 98, 99, 100, 101, 102, 103, 104, 105, 106, 107, 108, 109, 110, 111, 112, 113, 114, 115, 116, 117, 118, 119, 120, 121, 122, 123, 124, 125, 126, 127, 128, 129, 130, 131, 132, 133, 134, 135, 136, 137, 138, 139, 140, 141, 142, 143, 144, 145, 146, 147, 148, 149, 150, 151, 152, 153, 154, 155, 156, 157, 158, 159, 160, 161, 162, 163, 164, 165, 166, 167, 168, 169, 170, 171, 172, 173, 174, 175, 176, 177, 178, 179, 180, 181, 182, 183, 184, 185, 186, 187, 188, 189, 190, 191, 192, 193, 194, 195, 196, 197, 198, 199, 200, 201, 202, 203, 204, 205, 206, 207, 208, 209, 210, 211, 212, 213, 214, 215, 216, 217, 218, 219, 220, 221, 222, 223, 224, 225, 226, 227, 228, 229, 230, 231, 232, 233, 234, 235, 236, 237, 238, 239, 240, 241, 242, 243, 244, 245, 246, 247, 248, 249, 250, 251, 252, 253, 254, 255, 256, 257, 258, 259, 260, 261, 262, 263, 264, 265, 266, 267, 268, 269, 270, 271, 272, 273, 274, 275, 276, 277, 278, 279, 280, 281, 282, 283, 284, 285, 286, 287, 288, 289, 290, 291, 292, 293, 294, 295, 296, 297, 298, 299, 300, 301, 302, 303, 304, 305, 306, 307, 308, 309, 310, 311, 312, 313, 314, 315, 316, 317, 318, 319, 320, 321, 322, 323, 324, 325, 326, 327, 328, 329, 330, 331, 332, 333, 334, 335, 336, 337, 338, 339, 340, 341, 342, 343, 344, 345, 346, 347, 348, 349, 350, 351, 352, 353, 354, 355, 356, 357, 358, 359, 360, 361, 362, 363, 364, 365, 366, 367, 368, 369, 370, 371, 372, 373, 374, 375, 376, 377, 378, 379, 380, 381, 382, 383, 384, 385, 386, 387, 388, 389, 390, 391, 392, 393, 394, 395, 396, 397, 398, 399, 400, 401, 402, 403, 404, 405, 406, 407, 408, 409, 410, 411, 412, 413, 414, 415, 416, 417, 418, 419, 420, 421, 422, 423, 424, 425, 426, 427, 428, 429, 430, 431, 432, 433, 434, 435, 436, 437, 438, 439, 440, 441, 442, 443, 444, 445, 446, 447, 448, 449, 450, 451, 452, 453, 454, 455, 456, 457, 458, 459, 460, 461, 462, 463, 464, 465, 466, 467, 468, 469, 470, 471, 472, 473, 474, 475, 476, 477, 478, 479, 480, 481, 482, 483, 484, 485, 486, 487, 488, 489, 490, 491, 492, 493, 494, 495, 496, 497, 498, 499, 500, 501, 502, 503, 504, 505, 506, 507, 508, 509, 510, 511, 512, 513, 514, 515, 516, 517, 518, 519, 520, 521, 522, 523, 524, 525, 526, 527, 528, 529, 530],
      "AcquisitionTime": ["140743.222500", "140744.712500", "140746.202500", "140747.692500", "140749.182500", "140750.672500", "140752.162500", "140753.652500", "140755.142500", "140756.632500", "140758.122500", "140759.612500", "140801.102500", "140802.592500", "140804.082500", "140805.572500", "140807.062500", "140808.552500", "140810.042500", "140811.532500", "140813.022500", "140814.512500", "140816.002500", "140817.492500", "140818.982500", "140820.472500", "140821.962500", "140823.452500", "140824.942500", "140826.432500", "140827.922500", "140829.412500", "140830.902500", "140832.392500", "140833.882500", "140835.372500", "140836.862500", "140838.352500", "140839.842500", "140841.332500", "140842.822500", "140844.312500", "140845.802500", "140847.292500", "140848.782500", "140850.272500", "140851.762500", "140853.252500", "140854.742500", "140856.232500", "140857.722500", "140859.212500", "140900.702500", "140902.192500", "140903.682500", "140905.172500", "140906.662500", "140908.152500", "140909.642500", "140911.132500", "140912.622500", "140914.112500", "140915.602500", "140917.092500", "140918.582500", "140920.072500", "140921.562500", "140923.052500", "140924.542500", "140926.032500", "140927.522500", "140929.012500", "140930.502500", "140931.992500", "140933.482500", "140934.972500", "140936.462500", "140937.952500", "140939.442500", "140940.932500", "140942.422500", "140943.912500", "140945.402500", "140946.892500", "140948.382500", "140949.872500", "140951.362500", "140952.852500", "140954.342500", "140955.832500", "140957.322500", "140958.812500", "141000.302500", "141001.792500", "141003.282500", "141004.772500", "141006.262500", "141007.752500", "141009.242500", "141010.732500", "141012.222500", "141013.712500", "141015.202500", "141016.692500", "141018.182500", "141019.672500", "141021.162500", "141022.652500", "141024.142500", "141025.632500", "141027.122500", "141028.612500", "141030.102500", "141031.592500", "141033.082500", "141034.572500", "141036.062500", "141037.552500", "141039.042500", "141040.532500", "141042.022500", "141043.512500", "141045.002500", "141046.492500", "141047.982500", "141049.472500", "141050.962500", "141052.452500", "141053.942500", "141055.432500", "141056.922500", "141058.412500", "141059.902500", "141101.392500", "141102.882500", "141104.372500", "141105.862500", "141107.352500", "141108.842500", "141110.332500", "141111.822500", "141113.312500", "141114.802500", "141116.292500", "141117.782500", "141119.272500", "141120.762500", "141122.252500", "141123.742500", "141125.232500", "141126.722500", "141128.212500", "141129.702500", "141131.192500", "141132.682500", "141134.172500", "141135.662500", "141137.152500", "141138.642500", "141140.132500", "141141.622500", "141143.112500", "141144.602500", "141146.092500", "141147.582500", "141149.072500", "141150.562500", "141152.052500", "141153.542500", "141155.032500", "141156.522500", "141158.012500", "141159.502500", "141200.992500", "141202.482500", "141203.972500", "141205.462500", "141206.952500", "141208.442500", "141209.932500", "141211.422500", "141212.912500", "141214.402500", "141215.892500", "141217.382500", "141218.872500", "141220.362500", "141221.852500", "141223.342500", "141224.832500", "141226.322500", "141227.812500", "141229.302500", "141230.792500", "141232.282500", "141233.772500", "141235.262500", "141236.752500", "141238.242500", "141239.732500", "141241.222500", "141242.712500", "141244.202500", "141245.692500", "141247.182500", "141248.672500", "141250.162500", "141251.652500", "141253.142500", "141254.632500", "141256.122500", "141257.612500", "141259.102500", "141300.592500", "141302.082500", "141303.572500", "141305.062500", "141306.552500", "141308.042500", "141309.532500", "141311.022500", "141312.512500", "141314.002500", "141315.492500", "141316.982500", "141318.472500", "141319.962500", "141321.452500", "141322.942500", "141324.432500", "141325.922500", "141327.412500", "141328.902500", "141330.392500", "141331.882500", "141333.372500", "141334.862500", "141336.352500", "141337.842500", "141339.332500", "141340.822500", "141342.312500", "141343.802500", "141345.292500", "141346.782500", "141348.272500", "141349.762500", "141351.252500", "141352.742500", "141354.232500", "141355.722500", "141357.212500", "141358.702500", "141400.192500", "141401.682500", "141403.172500", "141404.662500", "141406.152500", "141407.642500", "141409.132500", "141410.622500", "141412.112500", "141413.602500", "141415.092500", "141416.582500", "141418.072500", "141419.562500", "141421.052500", "141422.542500", "141424.032500", "141425.522500", "141427.012500", "141428.502500", "141429.992500", "141431.482500", "141432.972500", "141434.462500", "141435.952500", "141437.442500", "141438.932500", "141440.422500", "141441.912500", "141443.402500", "141444.892500", "141446.382500", "141447.872500", "141449.362500", "141450.852500", "141452.342500", "141453.832500", "141455.322500", "141456.812500", "141458.302500", "141459.792500", "141501.282500", "141502.772500", "141504.262500", "141505.752500", "141507.242500", "141508.732500", "141510.222500", "141511.712500", "141513.202500", "141514.692500", "141516.182500", "141517.672500", "141519.162500", "141520.652500", "141522.142500", "141523.632500", "141525.122500", "141526.612500", "141528.102500", "141529.592500", "141531.082500", "141532.572500", "141534.062500", "141535.552500", "141537.042500", "141538.532500", "141540.022500", "141541.512500", "141543.002500", "141544.492500", "141545.982500", "141547.472500", "141548.962500", "141550.452500", "141551.942500", "141553.432500", "141554.922500", "141556.412500", "141557.902500", "141559.392500", "141600.882500", "141602.372500", "141603.862500", "141605.352500", "141606.842500", "141608.332500", "141609.822500", "141611.312500", "141612.802500", "141614.292500", "141615.782500", "141617.272500", "141618.762500", "141620.252500", "141621.742500", "141623.232500", "141624.722500", "141626.212500", "141627.702500", "141629.192500", "141630.682500", "141632.172500", "141633.662500", "141635.152500", "141636.642500", "141638.132500", "141639.622500", "141641.112500", "141642.602500", "141644.092500", "141645.582500", "141647.072500", "141648.562500", "141650.052500", "141651.542500", "141653.032500", "141654.522500", "141656.012500", "141657.502500", "141658.992500", "141700.482500", "141701.972500", "141703.462500", "141704.952500", "141706.442500", "141707.932500", "141709.422500", "141710.912500", "141712.402500", "141713.892500", "141715.382500", "141716.872500", "141718.362500", "141719.852500", "141721.342500", "141722.832500", "141724.322500", "141725.812500", "141727.302500", "141728.792500", "141730.282500", "141731.772500", "141733.262500", "141734.752500", "141736.242500", "141737.732500", "141739.222500", "141740.712500", "141742.202500", "141743.692500", "141745.182500", "141746.672500", "141748.162500", "141749.652500", "141751.142500", "141752.632500", "141754.122500", "141755.612500", "141757.102500", "141758.592500", "141800.082500", "141801.572500", "141803.062500", "141804.552500", "141806.042500", "141807.532500", "141809.022500", "141810.512500", "141812.002500", "141813.492500", "141814.982500", "141816.472500", "141817.962500", "141819.452500", "141820.942500", "141822.432500", "141823.922500", "141825.412500", "141826.902500", "141828.392500", "141829.882500", "141831.372500", "141832.862500", "141834.352500", "141835.842500", "141837.332500", "141838.822500", "141840.312500", "141841.802500", "141843.292500", "141844.782500", "141846.272500", "141847.762500", "141849.252500", "141850.742500", "141852.232500", "141853.722500", "141855.212500", "141856.702500", "141858.192500", "141859.682500", "141901.172500", "141902.662500", "141904.152500", "141905.642500", "141907.132500", "141908.622500", "141910.112500", "141911.602500", "141913.092500", "141914.582500", "141916.072500", "141917.562500", "141919.052500", "141920.542500", "141922.032500", "141923.522500", "141925.012500", "141926.502500", "141927.992500", "141929.482500", "141930.972500", "141932.462500", "141933.952500", "141935.442500", "141936.932500", "141938.422500", "141939.912500", "141941.402500", "141942.892500", "141944.382500", "141945.872500", "141947.362500", "141948.852500", "141950.342500", "141951.832500", "141953.322500", "141954.812500", "141956.302500", "141957.792500", "141959.282500", "142000.772500", "142002.262500", "142003.752500", "142005.242500", "142006.732500", "142008.222500", "142009.712500", "142011.202500", "142012.692500", "142014.182500", "142015.672500", "142017.162500", "142018.652500", "142020.142500", "142021.632500", "142023.122500", "142024.612500", "142026.102500", "142027.592500", "142029.082500", "142030.572500", "142032.062500", "142033.552500", "142035.042500", "142036.532500", "142038.022500", "142039.512500", "142041.002500", "142042.492500", "142043.982500", "142045.472500", "142046.962500", "142048.452500", "142049.942500", "142051.432500"],
      "ContentTime": ["140859.813000", "140859.817000", "140859.820000", "140859.823000", "140859.826000", "140859.829000", "140859.831000", "140859.834000", "140859.837000", "140859.840000", "140859.843000", "140859.846000", "140859.849000", "140859.855000", "140859.858000", "140859.861000", "140859.864000", "140859.867000", "140859.870000", "140859.873000", "140859.880000", "140859.883000", "140859.886000", "140859.889000", "140919.781000", "140919.784000", "140919.787000", "140919.790000", "140919.793000", "140919.796000", "140919.799000", "140919.802000", "140919.805000", "140919.808000", "140919.810000", "140919.814000", "140919.816000", "140919.819000", "140919.822000", "140919.833000", "140919.836000", "140919.839000", "140919.841000", "140919.845000", "140939.781000", "140939.784000", "140939.787000", "140939.790000", "140939.793000", "140939.796000", "140939.799000", "140939.802000", "140939.805000", "140939.808000", "140939.810000", "140939.813000", "140939.816000", "140939.819000", "140939.822000", "140939.825000", "140939.828000", "140939.841000", "140939.844000", "140939.847000", "140959.780000", "140959.783000", "140959.786000", "140959.789000", "140959.792000", "140959.795000", "140959.798000", "140959.801000", "140959.804000", "140959.807000", "140959.810000", "140959.813000", "140959.816000", "140959.819000", "140959.822000", "140959.825000", "140959.828000", "140959.831000", "140959.834000", "140959.837000", "141019.780000", "141019.789000", "141019.792000", "141019.795000", "141019.798000", "141019.801000", "141019.804000", "141019.807000", "141019.810000", "141019.812000", "141019.815000", "141019.818000", "141019.821000", "141019.824000", "141019.827000", "141019.830000", "141019.833000", "141019.836000", "141019.839000", "141019.842000", "141059.781000", "141059.784000", "141059.787000", "141059.790000", "141059.793000", "141059.796000", "141059.799000", "141059.802000", "141059.805000", "141059.808000", "141059.811000", "141059.814000", "141059.817000", "141059.820000", "141059.823000", "141059.826000", "141059.829000", "141059.832000", "141059.835000", "141059.837000", "141059.840000", "141059.843000", "141059.846000", "141059.849000", "141059.852000", "141059.855000", "141059.858000", "141139.782000", "141139.785000", "141139.788000", "141139.791000", "141139.794000", "141139.797000", "141139.800000", "141139.803000", "141139.811000", "141139.813000", "141139.816000", "141139.819000", "141139.822000", "141139.825000", "141139.828000", "141139.831000", "141139.834000", "141139.837000", "141139.840000", "141139.843000", "141139.846000", "141139.849000", "141139.852000", "141139.855000", "141139.858000", "141139.873000", "141139.876000", "141219.780000", "141219.783000", "141219.786000", "141219.789000", "141219.792000", "141219.795000", "141219.798000", "141219.801000", "141219.804000", "141219.807000", "141219.810000", "141219.813000", "141219.816000", "141219.819000", "141219.822000", "141219.825000", "141219.828000", "141219.831000", "141219.834000", "141219.837000", "141219.840000", "141219.843000", "141219.845000", "141219.849000", "141219.851000", "141219.854000", "141219.857000", "141259.781000", "141259.784000", "141259.787000", "141259.790000", "141259.793000", "141259.796000", "141259.799000", "141259.802000", "141259.805000", "141259.808000", "141259.811000", "141259.814000", "141259.817000", "141259.820000", "141259.823000", "141259.826000", "141259.829000", "141259.832000", "141259.835000", "141259.838000", "141259.841000", "141259.844000", "141259.847000", "141259.850000", "141259.853000", "141259.856000", "141259.859000", "141339.781000", "141339.784000", "141339.787000", "141339.790000", "141339.793000", "141339.796000", "141339.799000", "141339.802000", "141339.805000", "141339.808000", "141339.811000", "141339.814000", "141339.817000", "141339.820000", "141339.823000", "141339.826000", "141339.829000", "141339.832000", "141339.835000", "141339.838000", "141339.841000", "141339.844000", "141339.847000", "141339.850000", "141339.853000", "141339.856000", "141419.781000", "141419.784000", "141419.787000", "141419.790000", "141419.793000", "141419.796000", "141419.799000", "141419.802000", "141419.805000", "141419.808000", "141419.811000", "141419.814000", "141419.817000", "141419.820000", "141419.823000", "141419.826000", "141419.829000", "141419.832000", "141419.835000", "141419.838000", "141419.841000", "141419.844000", "141419.847000", "141419.850000", "141419.853000", "141419.856000", "141419.859000", "141459.781000", "141459.784000", "141459.787000", "141459.790000", "141459.793000", "141459.796000", "141459.799000", "141459.802000", "141459.805000", "141459.808000", "141459.811000", "141459.814000", "141459.817000", "141459.820000", "141459.823000", "141459.826000", "141459.829000", "141459.832000", "141459.835000", "141459.838000", "141459.841000", "141459.844000", "141459.847000", "141459.850000", "141459.853000", "141459.856000", "141459.859000", "141539.781000", "141539.784000", "141539.787000", "141539.790000", "141539.793000", "141539.796000", "141539.799000", "141539.802000", "141539.805000", "141539.808000", "141539.811000", "141539.814000", "141539.817000", "141539.820000", "141539.823000", "141539.826000", "141539.829000", "141539.832000", "141539.835000", "141539.838000", "141539.841000", "141539.844000", "141539.847000", "141539.850000", "141539.853000", "141539.856000", "141539.859000", "141619.781000", "141619.784000", "141619.787000", "141619.790000", "141619.793000", "141619.796000", "141619.799000", "141619.802000", "141619.805000", "141619.808000", "141619.811000", "141619.814000", "141619.817000", "141619.820000", "141619.823000", "141619.826000", "141619.829000", "141619.832000", "141619.835000", "141619.838000", "141619.852000", "141619.855000", "141619.858000", "141619.861000", "141619.864000", "141619.867000", "141619.870000", "141659.780000", "141659.783000", "141659.786000", "141659.789000", "141659.792000", "141659.795000", "141659.798000", "141659.801000", "141659.804000", "141659.807000", "141659.810000", "141659.813000", "141659.816000", "141659.819000", "141659.822000", "141659.825000", "141659.828000", "141659.831000", "141659.834000", "141659.837000", "141659.840000", "141659.843000", "141659.846000", "141659.849000", "141659.852000", "141659.855000", "141659.858000", "141739.781000", "141739.784000", "141739.787000", "141739.790000", "141739.793000", "141739.796000", "141739.799000", "141739.802000", "141739.805000", "141739.808000", "141739.811000", "141739.814000", "141739.817000", "141739.820000", "141739.823000", "141739.826000", "141739.829000", "141739.832000", "141739.835000", "141739.838000", "141739.841000", "141739.844000", "141739.847000", "141739.850000", "141739.853000", "141739.856000", "141739.859000", "141819.781000", "141819.784000", "141819.787000", "141819.790000", "141819.793000", "141819.796000", "141819.799000", "141819.802000", "141819.805000", "141819.808000", "141819.811000", "141819.814000", "141819.817000", "141819.820000", "141819.823000", "141819.826000", "141819.829000", "141819.832000", "141819.835000", "141819.838000", "141819.841000", "141819.844000", "141819.847000", "141819.850000", "141819.853000", "141819.857000", "141859.781000", "141859.784000", "141859.787000", "141859.790000", "141859.793000", "141859.796000", "141859.799000", "141859.802000", "141859.805000", "141859.808000", "141859.811000", "141859.814000", "141859.817000", "141859.820000", "141859.823000", "141859.826000", "141859.829000", "141859.832000", "141859.835000", "141859.838000", "141859.841000", "141859.844000", "141859.847000", "141859.850000", "141859.853000", "141859.856000", "141859.859000", "141939.781000", "141939.784000", "141939.787000", "141939.790000", "141939.793000", "141939.796000", "141939.799000", "141939.802000", "141939.805000", "141939.808000", "141939.811000", "141939.814000", "141939.817000", "141939.820000", "141939.823000", "141939.826000", "141939.829000", "141939.832000", "141939.835000", "141939.838000", "141939.841000", "141939.844000", "141939.847000", "141939.850000", "141939.853000", "141939.856000", "141939.859000", "142019.781000", "142019.784000", "142019.787000", "142019.790000", "142019.793000", "142019.796000", "142019.799000", "142019.802000", "142019.805000", "142019.808000", "142019.811000", "142019.814000", "142019.817000", "142019.820000", "142019.823000", "142019.826000", "142019.829000", "142019.832000", "142019.835000", "142019.838000", "142019.841000", "142019.844000", "142019.847000", "142019.850000", "142019.853000", "142019.856000", "142019.859000", "142053.874000", "142053.878000", "142053.881000", "142053.884000", "142053.887000", "142053.890000", "142053.893000", "142053.896000", "142053.899000", "142053.902000", "142053.905000", "142053.908000", "142053.911000", "142053.914000", "142053.917000", "142053.919000", "142053.930000", "142053.933000", "142053.936000", "142053.939000", "142053.942000", "142053.945000", "142053.948000"],
