{
  "AcquisitionMatrixPE": 104,
  "AcquisitionNumber": 1,
  "AcquisitionTime": "13:16:59.760000",
  "BandwidthPerPixelPhaseEncode": 17.17,
  "BaseResolution": 104,
  "BodyPartExamined": "BRAIN",
  "CoilString": "HC1-7;NC1_2",
  "ConsistencyInfo": "N4_VE11C_LATEST_20160120",
  "ConversionSoftware": "dcm2niix",
  "ConversionSoftwareVersion": "v1.0.20190902",
  "DerivedVendorReportedEchoSpacing": 0.000560011,
  "DeviceSerialNumber": "167006",
  "DwellTime": 2.1e-06,
  "EchoTime": 0.037,
  "EchoTrainLength": 104,
  "EffectiveEchoSpacing": 0.000560011,
  "FlipAngle": 52,
  "ImageComments": "Unaliased_MB4_PE3_LB",
  "ImageOrientationPatientDICOM": [0.998784, 0.0323445, -0.037211, -0.039417, 0.97721, -0.208585],
  "ImageType": [
    "ORIGINAL",
    "PRIMARY",
    "M",
    "MB",
    "ND",
    "MOSAIC"
],
  "ImagingFrequency": 123.259,
  "InPlanePhaseEncodingDirectionDICOM": "COL",
  "InstitutionAddress": "Chemin_Queen-Mary_4565_Montreal_District_CA_H3W_1W5",
  "InstitutionName": "IUGM",
  "InstitutionalDepartmentName": "Department",
  "MRAcquisitionType": "2D",
  "MagneticFieldStrength": 3,
  "Manufacturer": "Siemens",
  "ManufacturersModelName": "Prisma_fit",
  "Modality": "MR",
  "MultibandAccelerationFactor": 4,
  "PartialFourier": 1,
  "PatientPosition": "HFS",
  "PercentPhaseFOV": 100,
  "PhaseEncodingDirection": "j",
  "PhaseEncodingSteps": 104,
  "PhaseResolution": 1,
  "PixelBandwidth": 2290,
  "ProcedureStepDescription": "games_shinobi",
  "ProtocolName": "func_task-shinobi_run-1",
  "PulseSequenceDetails": "%CustomerSeq%_cmrr_mbep2d_bold",
  "ReceiveCoilActiveElements": "HC1-7;NC1,2",
  "ReceiveCoilName": "HeadNeck_64",
  "ReconMatrixPE": 104,
  "RepetitionTime": 1.49,
  "SAR": 0.028816,
  "ScanOptions": "FS",
  "ScanningSequence": "EP",
  "SequenceName": "epfid2d1_104",
  "SequenceVariant": "SK_SS",
  "SeriesDescription": "func_task-shinobi_run-1",
  "SeriesNumber": 9,
  "ShimSetting": [598, -7258, -8836, 606, -52, -313, 28, 57],
  "SliceThickness": 2,
  "SliceTiming": [0, 0.7825, 0.0975, 0.88, 0.195, 0.9775, 0.2925, 1.0775, 0.39, 1.175, 0.4875, 1.2725, 0.5875, 1.37, 0.685, 0, 0.7825, 0.0975, 0.88, 0.195, 0.9775, 0.2925, 1.0775, 0.39, 1.175, 0.4875, 1.2725, 0.5875, 1.37, 0.685, 0, 0.7825, 0.0975, 0.88, 0.195, 0.9775, 0.2925, 1.0775, 0.39, 1.175, 0.4875, 1.2725, 0.5875, 1.37, 0.685, 0, 0.7825, 0.0975, 0.88, 0.195, 0.9775, 0.2925, 1.0775, 0.39, 1.175, 0.4875, 1.2725, 0.5875, 1.37, 0.685],
  "SoftwareVersions": "syngo_MR_E11",
  "SpacingBetweenSlices": 2,
  "StationName": "MRC35049",
  "TaskName": "shinobi",
  "TotalReadoutTime": 0.0576811,
  "TxRefAmp": 216.036,
  "WipMemBlock": "cea382eb-87cb-4172-87cc-b1f08b3b2deb||Sequence: R016 ve11c/master r/e634e98; Dec 19 2017 11:00:25 by eja",
  "dcmmeta_affine": [
    [-1.9975676536560059, -0.07883396744728088, -0.05923270061612129, 109.11802673339844],
    [-0.06468908488750458, 1.9544192552566528, -0.41959598660469055, -70.91895294189453],
    [-0.0744219720363617, 0.41716983914375305, 1.954592227935791, -48.3197135925293],
    [0.0, 0.0, 0.0, 1.0]
],
  "dcmmeta_reorient_transform": [
    [0.0, -1.0, 0.0, 103.0],
    [1.0, 0.0, 0.0, 0.0],
    [0.0, 0.0, 1.0, 0.0],
    [0.0, 0.0, 0.0, 1.0]
],
  "dcmmeta_shape": [104, 104, 60, 472],
  "dcmmeta_slice_dim": 2,
  "dcmmeta_version": 0.6,
  "global": {
    "const": {
      "AcquisitionMatrix": [104, 0, 0, 104],
      "AngioFlag": "N",
      "BitsAllocated": 16,
      "BitsStored": 16,
      "BodyPartExamined": "BRAIN",
      "Columns": 832,
      "EchoNumbers": 1,
      "EchoTime": 37.0,
      "EchoTrainLength": 104,
      "FlipAngle": 52.0,
      "HighBit": 15,
      "ImageOrientationPatient": [0.99878384709372, 0.03234454124126, -0.0372109854284, -0.0394169840392, 0.97720961662301, -0.2085849144803],
      "ImagePositionPatient": [-799.41720488528, -865.34165463421, 173.5881929813],
      "ImageType": [
        "ORIGINAL",
        "PRIMARY",
        "M",
        "MB",
        "ND",
        "MOSAIC"
],
      "ImagedNucleus": "1H",
      "ImagingFrequency": 123.258986,
      "InPlanePhaseEncodingDirection": "COL",
      "MRAcquisitionType": "2D",
      "MagneticFieldStrength": 3.0,
      "Manufacturer": "SIEMENS",
      "ManufacturerModelName": "Prisma_fit",
      "Modality": "MR",
      "NumberOfAverages": 1.0,
      "NumberOfPhaseEncodingSteps": 104,
      "PercentPhaseFieldOfView": 100.0,
      "PercentSampling": 100.0,
      "PerformedProcedureStepStartTime": "120739.680000",
      "PhotometricInterpretation": "MONOCHROME2",
      "PixelBandwidth": 2290.0,
      "PixelRepresentation": 0,
      "PixelSpacing": [2.0, 2.0],
      "ProtocolName": "func_task-shinobi_run-1",
      "RepetitionTime": 1490.0,
      "Rows": 832,
      "SAR": 0.02881599043873,
      "SamplesPerPixel": 1,
      "ScanOptions": "FS",
      "ScanningSequence": "EP",
      "SequenceName": "epfid2d1_104",
      "SequenceVariant": [
        "SK",
        "SS"
],
      "SeriesDescription": "func_task-shinobi_run-1",
      "SeriesNumber": 9,
      "SeriesTime": "131814.590000",
      "SliceLocation": -35.575692688292,
      "SliceThickness": 2.0,
      "SmallestImagePixelValue": 0,
      "SoftwareVersions": "syngo MR E11",
      "SpacingBetweenSlices": 1.9999999978012,
      "SpecificCharacterSet": "ISO_IR 100",
      "StudyID": "1",
      "StudyTime": "120739.622000",
      "TransmitCoilName": "Body",
      "VariableFlipAngleFlag": "N",
      "WindowCenterWidthExplanation": "Algo1",
      "dBdt": 0.0},
    "slices": {}
  },
  "time": {
    "samples": {
      "AcquisitionNumber": [1, 2, 3, 4, 5, 6, 7, 8, 9, 10, 11, 12, 13, 14, 15, 16, 17, 18, 19, 20, 21, 22, 23, 24, 25, 26, 27, 28, 29, 30, 31, 32, 33, 34, 35, 36, 37, 38, 39, 40, 41, 42, 43, 44, 45, 46, 47, 48, 49, 50, 51, 52, 53, 54, 55, 56, 57, 58, 59, 60, 61, 62, 63, 64, 65, 66, 67, 68, 69, 70, 71, 72, 73, 74, 75, 76, 77, 78, 79, 80, 81, 82, 83, 84, 85, 86, 87, 88, 89, 90, 91, 92, 93, 94, 95, 96, 97, 98, 99, 100, 101, 102, 103, 104, 105, 106, 107, 108, 109, 110, 111, 112, 113, 114, 115, 116, 117, 118, 119, 120, 121, 122, 123, 124, 125, 126, 127, 128, 129, 130, 131, 132, 133, 134, 135, 136, 137, 138, 139, 140, 141, 142, 143, 144, 145, 146, 147, 148, 149, 150, 151, 152, 153, 154, 155, 156, 157, 158, 159, 160, 161, 162, 163, 164, 165, 166, 167, 168, 169, 170, 171, 172, 173, 174, 175, 176, 177, 178, 179, 180, 181, 182, 183, 184, 185, 186, 187, 188, 189, 190, 191, 192, 193, 194, 195, 196, 197, 198, 199, 200, 201, 202, 203, 204, 205, 206, 207, 208, 209, 210, 211, 212, 213, 214, 215, 216, 217, 218, 219, 220, 221, 222, 223, 224, 225, 226, 227, 228, 229, 230, 231, 232, 233, 234, 235, 236, 237, 238, 239, 240, 241, 242, 243, 244, 245, 246, 247, 248, 249, 250, 251, 252, 253, 254, 255, 256, 257, 258, 259, 260, 261, 262, 263, 264, 265, 266, 267, 268, 269, 270, 271, 272, 273, 274, 275, 276, 277, 278, 279, 280, 281, 282, 283, 284, 285, 286, 287, 288, 289, 290, 291, 292, 293, 294, 295, 296, 297, 298, 299, 300, 301, 302, 303, 304, 305, 306, 307, 308, 309, 310, 311, 312, 313, 314, 315, 316, 317, 318, 319, 320, 321, 322, 323, 324, 325, 326, 327, 328, 329, 330, 331, 332, 333, 334, 335, 336, 337, 338, 339, 340, 341, 342, 343, 344, 345, 346, 347, 348, 349, 350, 351, 352, 353, 354, 355, 356, 357, 358, 359, 360, 361, 362, 363, 364, 365, 366, 367, 368, 369, 370, 371, 372, 373, 374, 375, 376, 377, 378, 379, 380, 381, 382, 383, 384, 385, 386, 387, 388, 389, 390, 391, 392, 393, 394, 395, 396, 397, 398, 399, 400, 401, 402, 403, 404, 405, 406, 407, 408, 409, 410, 411, 412, 413, 414, 415, 416, 417, 418, 419, 420, 421, 422, 423, 424, 425, 426, 427, 428, 429, 430, 431, 432, 433, 434, 435, 436, 437, 438, 439, 440, 441, 442, 443, 444, 445, 446, 447, 448, 449, 450, 451, 452, 453, 454, 455, 456, 457, 458, 459, 460, 461, 462, 463, 464, 465, 466, 467, 468, 469, 470, 471, 472],
      "AcquisitionTime": ["131659.760000", "131701.250000", "131702.740000", "131704.230000", "131705.720000", "131707.210000", "131708.700000", "131710.190000", "131711.680000", "131713.170000", "131714.660000", "131716.150000", "131717.640000", "131719.130000", "131720.620000", "131722.110000", "131723.600000", "131725.090000", "131726.580000", "131728.070000", "131729.560000", "131731.050000", "131732.540000", "131734.030000", "131735.520000", "131737.010000", "131738.500000", "131739.990000", "131741.480000", "131742.970000", "131744.460000", "131745.950000", "131747.440000", "131748.930000", "131750.420000", "131751.910000", "131753.400000", "131754.890000", "131756.380000", "131757.870000", "131759.360000", "131800.850000", "131802.340000", "131803.830000", "131805.320000", "131806.810000", "131808.300000", "131809.790000", "131811.280000", "131812.770000", "131814.260000", "131815.750000", "131817.240000", "131818.730000", "131820.220000", "131821.710000", "131823.200000", "131824.690000", "131826.180000", "131827.670000", "131829.160000", "131830.650000", "131832.140000", "131833.630000", "131835.120000", "131836.610000", "131838.100000", "131839.590000", "131841.080000", "131842.570000", "131844.060000", "131845.550000", "131847.040000", "131848.530000", "131850.020000", "131851.510000", "131853.000000", "131854.490000", "131855.980000", "131857.470000", "131858.960000", "131900.450000", "131901.940000", "131903.430000", "131904.920000", "131906.410000", "131907.900000", "131909.390000", "131910.880000", "131912.370000", "131913.860000", "131915.350000", "131916.840000", "131918.330000", "131919.820000", "131921.310000", "131922.800000", "131924.290000", "131925.780000", "131927.270000", "131928.760000", "131930.250000", "131931.740000", "131933.230000", "131934.720000", "131936.210000", "131937.700000", "131939.190000", "131940.680000", "131942.170000", "131943.660000", "131945.150000", "131946.640000", "131948.130000", "131949.620000", "131951.110000", "131952.600000", "131954.090000", "131955.580000", "131957.070000", "131958.560000", "132000.050000", "132001.540000", "132003.030000", "132004.520000", "132006.010000", "132007.500000", "132008.990000", "132010.480000", "132011.970000", "132013.460000", "132014.950000", "132016.440000", "132017.930000", "132019.420000", "132020.910000", "132022.400000", "132023.890000", "132025.380000", "132026.870000", "132028.360000", "132029.850000", "132031.340000", "132032.830000", "132034.320000", "132035.810000", "132037.300000", "132038.790000", "132040.280000", "132041.770000", "132043.260000", "132044.750000", "132046.240000", "132047.730000", "132049.220000", "132050.710000", "132052.200000", "132053.690000", "132055.180000", "132056.670000", "132058.160000", "132059.650000", "132101.140000", "132102.630000", "132104.120000", "132105.610000", "132107.100000", "132108.590000", "132110.080000", "132111.570000", "132113.060000", "132114.550000", "132116.040000", "132117.530000", "132119.020000", "132120.510000", "132122.000000", "132123.490000", "132124.980000", "132126.470000", "132127.960000", "132129.450000", "132130.940000", "132132.430000", "132133.920000", "132135.410000", "132136.900000", "132138.390000", "132139.880000", "132141.370000", "132142.860000", "132144.350000", "132145.840000", "132147.330000", "132148.820000", "132150.310000", "132151.800000", "132153.290000", "132154.780000", "132156.270000", "132157.760000", "132159.250000", "132200.740000", "132202.230000", "132203.720000", "132205.210000", "132206.700000", "132208.190000", "132209.680000", "132211.170000", "132212.660000", "132214.150000", "132215.640000", "132217.130000", "132218.620000", "132220.110000", "132221.600000", "132223.090000", "132224.580000", "132226.070000", "132227.560000", "132229.050000", "132230.540000", "132232.030000", "132233.520000", "132235.010000", "132236.500000", "132237.990000", "132239.480000", "132240.970000", "132242.460000", "132243.950000", "132245.440000", "132246.930000", "132248.420000", "132249.910000", "132251.400000", "132252.890000", "132254.380000", "132255.870000", "132257.360000", "132258.850000", "132300.340000", "132301.830000", "132303.320000", "132304.810000", "132306.300000", "132307.790000", "132309.280000", "132310.770000", "132312.260000", "132313.750000", "132315.240000", "132316.730000", "132318.220000", "132319.710000", "132321.200000", "132322.690000", "132324.180000", "132325.670000", "132327.160000", "132328.650000", "132330.140000", "132331.630000", "132333.120000", "132334.610000", "132336.100000", "132337.590000", "132339.080000", "132340.570000", "132342.060000", "132343.550000", "132345.040000", "132346.530000", "132348.020000", "132349.510000", "132351.000000", "132352.490000", "132353.980000", "132355.470000", "132356.960000", "132358.450000", "132359.940000", "132401.430000", "132402.920000", "132404.410000", "132405.900000", "132407.390000", "132408.880000", "132410.370000", "132411.860000", "132413.350000", "132414.840000", "132416.330000", "132417.820000", "132419.310000", "132420.800000", "132422.290000", "132423.780000", "132425.270000", "132426.760000", "132428.250000", "132429.740000", "132431.230000", "132432.720000", "132434.210000", "132435.700000", "132437.190000", "132438.680000", "132440.170000", "132441.660000", "132443.150000", "132444.640000", "132446.130000", "132447.620000", "132449.110000", "132450.600000", "132452.090000", "132453.580000", "132455.070000", "132456.560000", "132458.050000", "132459.540000", "132501.030000", "132502.520000", "132504.010000", "132505.500000", "132506.990000", "132508.480000", "132509.970000", "132511.460000", "132512.950000", "132514.440000", "132515.930000", "132517.420000", "132518.910000", "132520.400000", "132521.890000", "132523.380000", "132524.870000", "132526.360000", "132527.850000", "132529.340000", "132530.830000", "132532.320000", "132533.810000", "132535.300000", "132536.790000", "132538.280000", "132539.770000", "132541.260000", "132542.750000", "132544.240000", "132545.730000", "132547.220000", "132548.710000", "132550.200000", "132551.690000", "132553.180000", "132554.670000", "132556.160000", "132557.650000", "132559.140000", "132600.630000", "132602.120000", "132603.610000", "132605.100000", "132606.590000", "132608.080000", "132609.570000", "132611.060000", "132612.550000", "132614.040000", "132615.530000", "132617.020000", "132618.510000", "132620.000000", "132621.490000", "132622.980000", "132624.470000", "132625.960000", "132627.450000", "132628.940000", "132630.430000", "132631.920000", "132633.410000", "132634.900000", "132636.390000", "132637.880000", "132639.370000", "132640.860000", "132642.350000", "132643.840000", "132645.330000", "132646.820000", "132648.310000", "132649.800000", "132651.290000", "132652.780000", "132654.270000", "132655.760000", "132657.250000", "132658.740000", "132700.230000", "132701.720000", "132703.210000", "132704.700000", "132706.190000", "132707.680000", "132709.170000", "132710.660000", "132712.150000", "132713.640000", "132715.130000", "132716.620000", "132718.110000", "132719.600000", "132721.090000", "132722.580000", "132724.070000", "132725.560000", "132727.050000", "132728.540000", "132730.030000", "132731.520000", "132733.010000", "132734.500000", "132735.990000", "132737.480000", "132738.970000", "132740.460000", "132741.950000", "132743.440000", "132744.930000", "132746.420000", "132747.910000", "132749.400000", "132750.890000", "132752.380000", "132753.870000", "132755.360000", "132756.850000", "132758.340000", "132759.830000", "132801.320000", "132802.810000", "132804.300000", "132805.790000", "132807.280000", "132808.770000", "132810.260000", "132811.750000", "132813.240000", "132814.730000", "132816.220000", "132817.710000", "132819.200000", "132820.690000", "132822.180000", "132823.670000", "132825.160000", "132826.650000", "132828.140000", "132829.630000", "132831.120000", "132832.610000", "132834.100000", "132835.590000", "132837.080000", "132838.570000", "132840.060000", "132841.550000"],
      "ContentTime": ["131814.592000", "131814.596000", "131814.599000", "131814.609000", "131814.612000", "131814.615000", "131814.618000", "131814.621000", "131814.624000", "131814.627000", "131814.630000", "131814.633000", "131814.636000", "131814.639000", "131814.642000", "131814.645000", "131814.648000", "131814.651000", "131814.661000", "131814.663000", "131814.666000", "131814.672000", "131834.563000", "131834.566000", "131834.569000", "131834.572000", "131834.575000", "131834.583000", "131834.587000", "131834.589000", "131834.592000", "131834.595000", "131834.599000", "131834.602000", "131834.605000", "131834.608000", "131834.611000", "131834.614000", "131834.617000", "131834.620000", "131834.623000", "131834.626000", "131854.563000", "131854.566000", "131854.569000", "131854.572000", "131854.583000", "131854.586000", "131854.589000", "131854.592000", "131854.595000", "131854.598000", "131854.601000", "131854.612000", "131854.615000", "131854.618000", "131854.621000", "131854.624000", "131854.627000", "131854.630000", "131854.633000", "131854.636000", "131854.639000", "131914.562000", "131914.565000", "131914.568000", "131914.571000", "131914.574000", "131914.577000", "131914.580000", "131914.583000", "131914.586000", "131914.589000", "131914.592000", "131914.595000", "131914.598000", "131914.601000", "131914.603000", "131914.607000", "131914.609000", "131914.612000", "131914.615000", "131914.618000", "131934.562000", "131934.565000", "131934.568000", "131934.571000", "131934.574000", "131934.577000", "131934.580000", "131934.583000", "131934.586000", "131934.589000", "131934.592000", "131934.595000", "131934.597000", "131934.600000", "131934.603000", "131934.606000", "131934.609000", "131934.612000", "131934.615000", "131934.618000", "132014.563000", "132014.566000", "132014.569000", "132014.572000", "132014.575000", "132014.578000", "132014.581000", "132014.584000", "132014.587000", "132014.590000", "132014.593000", "132014.596000", "132014.599000", "132014.602000", "132014.605000", "132014.608000", "132014.611000", "132014.614000", "132014.617000", "132014.619000", "132014.622000", "132014.626000", "132014.628000", "132014.631000", "132014.634000", "132014.637000", "132014.640000", "132054.563000", "132054.566000", "132054.569000", "132054.572000", "132054.575000", "132054.578000", "132054.581000", "132054.584000", "132054.587000", "132054.590000", "132054.593000", "132054.596000", "132054.599000", "132054.602000", "132054.605000", "132054.608000", "132054.611000", "132054.614000", "132054.617000", "132054.619000", "132054.623000", "132054.625000", "132054.628000", "132054.631000", "132054.634000", "132054.637000", "132054.663000", "132134.562000", "132134.565000", "132134.568000", "132134.571000", "132134.574000", "132134.577000", "132134.580000", "132134.583000", "132134.586000", "132134.589000", "132134.592000", "132134.599000", "132134.602000", "132134.605000", "132134.608000", "132134.611000", "132134.614000", "132134.617000", "132134.620000", "132134.623000", "132134.626000", "132134.629000", "132134.632000", "132134.635000", "132134.638000", "132134.641000", "132134.644000", "132214.562000", "132214.565000", "132214.568000", "132214.571000", "132214.574000", "132214.577000", "132214.580000", "132214.583000", "132214.586000", "132214.589000", "132214.592000", "132214.595000", "132214.598000", "132214.601000", "132214.604000", "132214.607000", "132214.610000", "132214.613000", "132214.616000", "132214.619000", "132214.622000", "132214.625000", "132214.628000", "132214.631000", "132214.634000", "132214.637000", "132214.640000", "132254.563000", "132254.571000", "132254.574000", "132254.577000", "132254.580000", "132254.583000", "132254.586000", "132254.589000", "132254.592000", "132254.595000", "132254.598000", "132254.601000", "132254.604000", "132254.607000", "132254.610000", "132254.613000", "132254.616000", "132254.619000", "132254.622000", "132254.625000", "132254.628000", "132254.631000", "132254.634000", "132254.637000", "132254.640000", "132254.643000", "132254.646000", "132334.563000", "132334.566000", "132334.569000", "132334.572000", "132334.575000", "132334.578000", "132334.581000", "132334.584000", "132334.587000", "132334.590000", "132334.593000", "132334.596000", "132334.599000", "132334.602000", "132334.605000", "132334.608000", "132334.612000", "132334.615000", "132334.619000", "132334.621000", "132334.624000", "132334.627000", "132334.631000", "132334.633000", "132334.636000", "132334.639000", "132414.562000", "132414.565000", "132414.568000", "132414.571000", "132414.574000", "132414.577000", "132414.580000", "132414.583000", "132414.586000", "132414.589000", "132414.592000", "132414.595000", "132414.598000", "132414.601000", "132414.604000", "132414.607000", "132414.610000", "132414.613000", "132414.616000", "132414.619000", "132414.622000", "132414.625000", "132414.628000", "132414.631000", "132414.634000", "132414.637000", "132414.640000", "132454.563000", "132454.566000", "132454.569000", "132454.572000", "132454.575000", "132454.578000", "132454.581000", "132454.584000", "132454.587000", "132454.590000", "132454.593000", "132454.596000", "132454.599000", "132454.602000", "132454.605000", "132454.608000", "132454.611000", "132454.614000", "132454.617000", "132454.620000", "132454.623000", "132454.626000", "132454.629000", "132454.632000", "132454.635000", "132454.638000", "132454.641000", "132534.563000", "132534.566000", "132534.569000", "132534.572000", "132534.575000", "132534.578000", "132534.581000", "132534.584000", "132534.587000", "132534.590000", "132534.593000", "132534.596000", "132534.599000", "132534.602000", "132534.605000", "132534.608000", "132534.611000", "132534.614000", "132534.617000", "132534.620000", "132534.623000", "132534.626000", "132534.629000", "132534.632000", "132534.635000", "132534.638000", "132534.641000", "132614.562000", "132614.565000", "132614.568000", "132614.571000", "132614.574000", "132614.577000", "132614.580000", "132614.598000", "132614.601000", "132614.604000", "132614.607000", "132614.610000", "132614.613000", "132614.616000", "132614.619000", "132614.622000", "132614.625000", "132614.628000", "132614.630000", "132614.634000", "132614.637000", "132614.639000", "132614.642000", "132614.645000", "132614.648000", "132614.651000", "132614.654000", "132654.562000", "132654.565000", "132654.568000", "132654.571000", "132654.574000", "132654.577000", "132654.580000", "132654.583000", "132654.586000", "132654.589000", "132654.592000", "132654.595000", "132654.598000", "132654.601000", "132654.604000", "132654.607000", "132654.610000", "132654.613000", "132654.616000", "132654.619000", "132654.622000", "132654.625000", "132654.628000", "132654.631000", "132654.634000", "132654.637000", "132654.640000", "132734.563000", "132734.566000", "132734.569000", "132734.572000", "132734.575000", "132734.578000", "132734.581000", "132734.584000", "132734.587000", "132734.590000", "132734.593000", "132734.596000", "132734.599000", "132734.602000", "132734.605000", "132734.608000", "132734.611000", "132734.614000", "132734.617000", "132734.621000", "132734.625000", "132734.629000", "132734.632000", "132734.635000", "132734.638000", "132734.641000", "132814.563000", "132814.566000", "132814.569000", "132814.572000", "132814.575000", "132814.578000", "132814.581000", "132814.584000", "132814.587000", "132814.590000", "132814.593000", "132814.596000", "132814.599000", "132814.602000", "132814.605000", "132814.608000", "132814.611000", "132814.614000", "132814.617000", "132814.620000", "132814.623000", "132814.626000", "132814.629000", "132814.632000", "132814.635000", "132814.638000", "132814.641000", "132844.472000", "132844.475000", "132844.478000", "132844.481000", "132844.484000", "132844.487000", "132844.490000", "132844.493000", "132844.496000", "132844.499000", "132844.502000", "132844.505000", "132844.508000", "132844.511000", "132844.514000", "132844.516000", "132844.520000", "132844.522000", "132844.526000", "132844.529000"],
