{
  "AcquisitionMatrixPE": 104,
  "AcquisitionNumber": 1,
  "AcquisitionTime": "13:56:1.225000",
  "BandwidthPerPixelPhaseEncode": 17.17,
  "BaseResolution": 104,
  "BodyPartExamined": "BRAIN",
  "CoilString": "HC1-7;NC1_2",
  "ConsistencyInfo": "N4_VE11C_LATEST_20160120",
  "ConversionSoftware": "dcm2niix",
  "ConversionSoftwareVersion": "v1.0.20190902",
  "DerivedVendorReportedEchoSpacing": 0.000560011,
  "DeviceSerialNumber": "167006",
  "DwellTime": 2.1e-06,
  "EchoTime": 0.037,
  "EchoTrainLength": 104,
  "EffectiveEchoSpacing": 0.000560011,
  "FlipAngle": 52,
  "ImageComments": "Unaliased_MB4_PE3_LB",
  "ImageOrientationPatientDICOM": [0.998784, 0.0323445, -0.037211, -0.039417, 0.97721, -0.208585],
  "ImageType": [
    "ORIGINAL",
    "PRIMARY",
    "M",
    "MB",
    "ND",
    "MOSAIC"
],
  "ImagingFrequency": 123.259,
  "InPlanePhaseEncodingDirectionDICOM": "COL",
  "InstitutionAddress": "Chemin_Queen-Mary_4565_Montreal_District_CA_H3W_1W5",
  "InstitutionName": "IUGM",
  "InstitutionalDepartmentName": "Department",
  "MRAcquisitionType": "2D",
  "MagneticFieldStrength": 3,
  "Manufacturer": "Siemens",
  "ManufacturersModelName": "Prisma_fit",
  "Modality": "MR",
  "MultibandAccelerationFactor": 4,
  "PartialFourier": 1,
  "PatientPosition": "HFS",
  "PercentPhaseFOV": 100,
  "PhaseEncodingDirection": "j",
  "PhaseEncodingSteps": 104,
  "PhaseResolution": 1,
  "PixelBandwidth": 2290,
  "ProcedureStepDescription": "games_shinobi",
  "ProtocolName": "func_task-shinobi_run-4",
  "PulseSequenceDetails": "%CustomerSeq%_cmrr_mbep2d_bold",
  "ReceiveCoilActiveElements": "HC1-7;NC1,2",
  "ReceiveCoilName": "HeadNeck_64",
  "ReconMatrixPE": 104,
  "RepetitionTime": 1.49,
  "SAR": 0.028816,
  "ScanOptions": "FS",
  "ScanningSequence": "EP",
  "SequenceName": "epfid2d1_104",
  "SequenceVariant": "SK_SS",
  "SeriesDescription": "func_task-shinobi_run-4",
  "SeriesNumber": 17,
  "ShimSetting": [598, -7258, -8836, 606, -52, -313, 28, 57],
  "SliceThickness": 2,
  "SliceTiming": [0, 0.785, 0.0975, 0.8825, 0.195, 0.98, 0.295, 1.0775, 0.3925, 1.175, 0.49, 1.275, 0.5875, 1.3725, 0.685, 0, 0.785, 0.0975, 0.8825, 0.195, 0.98, 0.295, 1.0775, 0.3925, 1.175, 0.49, 1.275, 0.5875, 1.3725, 0.685, 0, 0.785, 0.0975, 0.8825, 0.195, 0.98, 0.295, 1.0775, 0.3925, 1.175, 0.49, 1.275, 0.5875, 1.3725, 0.685, 0, 0.785, 0.0975, 0.8825, 0.195, 0.98, 0.295, 1.0775, 0.3925, 1.175, 0.49, 1.275, 0.5875, 1.3725, 0.685],
  "SoftwareVersions": "syngo_MR_E11",
  "SpacingBetweenSlices": 2,
  "StationName": "MRC35049",
  "TaskName": "shinobi",
  "TotalReadoutTime": 0.0576811,
  "TxRefAmp": 216.036,
  "WipMemBlock": "099fc8fa-9d5e-4b2d-aa9a-2b7bbd780ff7||Sequence: R016 ve11c/master r/e634e98; Dec 19 2017 11:00:25 by eja",
  "dcmmeta_affine": [
    [-1.9975676536560059, -0.07883396744728088, -0.05923270061612129, 109.11802673339844],
    [-0.06468908488750458, 1.9544192552566528, -0.41959598660469055, -70.91895294189453],
    [-0.0744219720363617, 0.41716983914375305, 1.954592227935791, -48.3197135925293],
    [0.0, 0.0, 0.0, 1.0]
],
  "dcmmeta_reorient_transform": [
    [0.0, -1.0, 0.0, 103.0],
    [1.0, 0.0, 0.0, 0.0],
    [0.0, 0.0, 1.0, 0.0],
    [0.0, 0.0, 0.0, 1.0]
],
  "dcmmeta_shape": [104, 104, 60, 426],
  "dcmmeta_slice_dim": 2,
  "dcmmeta_version": 0.6,
  "global": {
    "const": {
      "AcquisitionMatrix": [104, 0, 0, 104],
      "AngioFlag": "N",
      "BitsAllocated": 16,
      "BitsStored": 16,
      "BodyPartExamined": "BRAIN",
      "Columns": 832,
      "EchoNumbers": 1,
      "EchoTime": 37.0,
      "EchoTrainLength": 104,
      "FlipAngle": 52.0,
      "HighBit": 15,
      "ImageOrientationPatient": [0.99878384709372, 0.03234454124126, -0.0372109854284, -0.0394169840392, 0.97720961662301, -0.2085849144803],
      "ImagePositionPatient": [-799.41720488528, -865.34165463421, 173.5881929813],
      "ImageType": [
        "ORIGINAL",
        "PRIMARY",
        "M",
        "MB",
        "ND",
        "MOSAIC"
],
      "ImagedNucleus": "1H",
      "ImagingFrequency": 123.259004,
      "InPlanePhaseEncodingDirection": "COL",
      "MRAcquisitionType": "2D",
      "MagneticFieldStrength": 3.0,
      "Manufacturer": "SIEMENS",
      "ManufacturerModelName": "Prisma_fit",
      "Modality": "MR",
      "NumberOfAverages": 1.0,
      "NumberOfPhaseEncodingSteps": 104,
      "PercentPhaseFieldOfView": 100.0,
      "PercentSampling": 100.0,
      "PerformedProcedureStepStartTime": "120739.680000",
      "PhotometricInterpretation": "MONOCHROME2",
      "PixelBandwidth": 2290.0,
      "PixelRepresentation": 0,
      "PixelSpacing": [2.0, 2.0],
      "ProtocolName": "func_task-shinobi_run-4",
      "RepetitionTime": 1490.0,
      "Rows": 832,
      "SAR": 0.02881599043873,
      "SamplesPerPixel": 1,
      "ScanOptions": "FS",
      "ScanningSequence": "EP",
      "SequenceName": "epfid2d1_104",
      "SequenceVariant": [
        "SK",
        "SS"
],
      "SeriesDescription": "func_task-shinobi_run-4",
      "SeriesNumber": 17,
      "SeriesTime": "135726.171000",
      "SliceLocation": -35.575692688292,
      "SliceThickness": 2.0,
      "SmallestImagePixelValue": 0,
      "SoftwareVersions": "syngo MR E11",
      "SpacingBetweenSlices": 1.9999999978012,
      "SpecificCharacterSet": "ISO_IR 100",
      "StudyID": "1",
      "StudyTime": "120739.622000",
      "TransmitCoilName": "Body",
      "VariableFlipAngleFlag": "N",
      "WindowCenterWidthExplanation": "Algo1",
      "dBdt": 0.0},
    "slices": {}
  },
  "time": {
    "samples": {
      "AcquisitionNumber": [1, 2, 3, 4, 5, 6, 7, 8, 9, 10, 11, 12, 13, 14, 15, 16, 17, 18, 19, 20, 21, 22, 23, 24, 25, 26, 27, 28, 29, 30, 31, 32, 33, 34, 35, 36, 37, 38, 39, 40, 41, 42, 43, 44, 45, 46, 47, 48, 49, 50, 51, 52, 53, 54, 55, 56, 57, 58, 59, 60, 61, 62, 63, 64, 65, 66, 67, 68, 69, 70, 71, 72, 73, 74, 75, 76, 77, 78, 79, 80, 81, 82, 83, 84, 85, 86, 87, 88, 89, 90, 91, 92, 93, 94, 95, 96, 97, 98, 99, 100, 101, 102, 103, 104, 105, 106, 107, 108, 109, 110, 111, 112, 113, 114, 115, 116, 117, 118, 119, 120, 121, 122, 123, 124, 125, 126, 127, 128, 129, 130, 131, 132, 133, 134, 135, 136, 137, 138, 139, 140, 141, 142, 143, 144, 145, 146, 147, 148, 149, 150, 151, 152, 153, 154, 155, 156, 157, 158, 159, 160, 161, 162, 163, 164, 165, 166, 167, 168, 169, 170, 171, 172, 173, 174, 175, 176, 177, 178, 179, 180, 181, 182, 183, 184, 185, 186, 187, 188, 189, 190, 191, 192, 193, 194, 195, 196, 197, 198, 199, 200, 201, 202, 203, 204, 205, 206, 207, 208, 209, 210, 211, 212, 213, 214, 215, 216, 217, 218, 219, 220, 221, 222, 223, 224, 225, 226, 227, 228, 229, 230, 231, 232, 233, 234, 235, 236, 237, 238, 239, 240, 241, 242, 243, 244, 245, 246, 247, 248, 249, 250, 251, 252, 253, 254, 255, 256, 257, 258, 259, 260, 261, 262, 263, 264, 265, 266, 267, 268, 269, 270, 271, 272, 273, 274, 275, 276, 277, 278, 279, 280, 281, 282, 283, 284, 285, 286, 287, 288, 289, 290, 291, 292, 293, 294, 295, 296, 297, 298, 299, 300, 301, 302, 303, 304, 305, 306, 307, 308, 309, 310, 311, 312, 313, 314, 315, 316, 317, 318, 319, 320, 321, 322, 323, 324, 325, 326, 327, 328, 329, 330, 331, 332, 333, 334, 335, 336, 337, 338, 339, 340, 341, 342, 343, 344, 345, 346, 347, 348, 349, 350, 351, 352, 353, 354, 355, 356, 357, 358, 359, 360, 361, 362, 363, 364, 365, 366, 367, 368, 369, 370, 371, 372, 373, 374, 375, 376, 377, 378, 379, 380, 381, 382, 383, 384, 385, 386, 387, 388, 389, 390, 391, 392, 393, 394, 395, 396, 397, 398, 399, 400, 401, 402, 403, 404, 405, 406, 407, 408, 409, 410, 411, 412, 413, 414, 415, 416, 417, 418, 419, 420, 421, 422, 423, 424, 425, 426],
      "AcquisitionTime": ["135601.225000", "135602.715000", "135604.205000", "135605.695000", "135607.185000", "135608.675000", "135610.165000", "135611.655000", "135613.145000", "135614.635000", "135616.125000", "135617.615000", "135619.105000", "135620.595000", "135622.085000", "135623.575000", "135625.065000", "135626.555000", "135628.045000", "135629.535000", "135631.025000", "135632.515000", "135634.005000", "135635.495000", "135636.985000", "135638.475000", "135639.965000", "135641.455000", "135642.945000", "135644.435000", "135645.925000", "135647.415000", "135648.905000", "135650.395000", "135651.885000", "135653.375000", "135654.865000", "135656.355000", "135657.845000", "135659.335000", "135700.825000", "135702.315000", "135703.805000", "135705.295000", "135706.785000", "135708.275000", "135709.765000", "135711.255000", "135712.745000", "135714.235000", "135715.725000", "135717.215000", "135718.705000", "135720.195000", "135721.685000", "135723.175000", "135724.665000", "135726.155000", "135727.645000", "135729.135000", "135730.625000", "135732.115000", "135733.605000", "135735.095000", "135736.585000", "135738.075000", "135739.565000", "135741.055000", "135742.545000", "135744.035000", "135745.525000", "135747.015000", "135748.505000", "135749.995000", "135751.485000", "135752.975000", "135754.465000", "135755.955000", "135757.445000", "135758.935000", "135800.425000", "135801.915000", "135803.405000", "135804.895000", "135806.385000", "135807.875000", "135809.365000", "135810.855000", "135812.345000", "135813.835000", "135815.325000", "135816.815000", "135818.305000", "135819.795000", "135821.285000", "135822.775000", "135824.265000", "135825.755000", "135827.245000", "135828.735000", "135830.225000", "135831.715000", "135833.205000", "135834.695000", "135836.185000", "135837.675000", "135839.165000", "135840.655000", "135842.145000", "135843.635000", "135845.125000", "135846.615000", "135848.105000", "135849.595000", "135851.085000", "135852.575000", "135854.065000", "135855.555000", "135857.045000", "135858.535000", "135900.025000", "135901.515000", "135903.005000", "135904.495000", "135905.985000", "135907.475000", "135908.965000", "135910.455000", "135911.945000", "135913.435000", "135914.925000", "135916.415000", "135917.905000", "135919.395000", "135920.885000", "135922.375000", "135923.865000", "135925.355000", "135926.845000", "135928.335000", "135929.825000", "135931.315000", "135932.805000", "135934.295000", "135935.785000", "135937.275000", "135938.765000", "135940.255000", "135941.745000", "135943.235000", "135944.725000", "135946.215000", "135947.705000", "135949.195000", "135950.685000", "135952.175000", "135953.665000", "135955.155000", "135956.645000", "135958.135000", "135959.625000", "140001.115000", "140002.605000", "140004.095000", "140005.585000", "140007.075000", "140008.565000", "140010.055000", "140011.545000", "140013.035000", "140014.525000", "140016.015000", "140017.505000", "140018.995000", "140020.485000", "140021.975000", "140023.465000", "140024.955000", "140026.445000", "140027.935000", "140029.425000", "140030.915000", "140032.405000", "140033.895000", "140035.385000", "140036.875000", "140038.365000", "140039.855000", "140041.345000", "140042.835000", "140044.325000", "140045.815000", "140047.305000", "140048.795000", "140050.285000", "140051.775000", "140053.265000", "140054.755000", "140056.245000", "140057.735000", "140059.225000", "140100.715000", "140102.205000", "140103.695000", "140105.185000", "140106.675000", "140108.165000", "140109.655000", "140111.145000", "140112.635000", "140114.125000", "140115.615000", "140117.105000", "140118.595000", "140120.085000", "140121.575000", "140123.065000", "140124.555000", "140126.045000", "140127.535000", "140129.025000", "140130.515000", "140132.005000", "140133.495000", "140134.985000", "140136.475000", "140137.965000", "140139.455000", "140140.945000", "140142.435000", "140143.925000", "140145.415000", "140146.905000", "140148.395000", "140149.885000", "140151.375000", "140152.865000", "140154.355000", "140155.845000", "140157.335000", "140158.825000", "140200.315000", "140201.805000", "140203.295000", "140204.785000", "140206.275000", "140207.765000", "140209.255000", "140210.745000", "140212.235000", "140213.725000", "140215.215000", "140216.705000", "140218.195000", "140219.685000", "140221.175000", "140222.665000", "140224.155000", "140225.645000", "140227.135000", "140228.625000", "140230.115000", "140231.605000", "140233.095000", "140234.585000", "140236.075000", "140237.565000", "140239.055000", "140240.545000", "140242.035000", "140243.525000", "140245.015000", "140246.505000", "140247.995000", "140249.485000", "140250.975000", "140252.465000", "140253.955000", "140255.445000", "140256.935000", "140258.425000", "140259.915000", "140301.405000", "140302.895000", "140304.385000", "140305.875000", "140307.365000", "140308.855000", "140310.345000", "140311.835000", "140313.325000", "140314.815000", "140316.305000", "140317.795000", "140319.285000", "140320.775000", "140322.265000", "140323.755000", "140325.245000", "140326.735000", "140328.225000", "140329.715000", "140331.205000", "140332.695000", "140334.185000", "140335.675000", "140337.165000", "140338.655000", "140340.145000", "140341.635000", "140343.125000", "140344.615000", "140346.105000", "140347.595000", "140349.085000", "140350.575000", "140352.065000", "140353.555000", "140355.045000", "140356.535000", "140358.025000", "140359.515000", "140401.005000", "140402.495000", "140403.985000", "140405.475000", "140406.965000", "140408.455000", "140409.945000", "140411.435000", "140412.925000", "140414.415000", "140415.905000", "140417.395000", "140418.885000", "140420.375000", "140421.865000", "140423.355000", "140424.845000", "140426.335000", "140427.825000", "140429.315000", "140430.805000", "140432.295000", "140433.785000", "140435.275000", "140436.765000", "140438.255000", "140439.745000", "140441.235000", "140442.725000", "140444.215000", "140445.705000", "140447.195000", "140448.685000", "140450.175000", "140451.665000", "140453.155000", "140454.645000", "140456.135000", "140457.625000", "140459.115000", "140500.605000", "140502.095000", "140503.585000", "140505.075000", "140506.565000", "140508.055000", "140509.545000", "140511.035000", "140512.525000", "140514.015000", "140515.505000", "140516.995000", "140518.485000", "140519.975000", "140521.465000", "140522.955000", "140524.445000", "140525.935000", "140527.425000", "140528.915000", "140530.405000", "140531.895000", "140533.385000", "140534.875000", "140536.365000", "140537.855000", "140539.345000", "140540.835000", "140542.325000", "140543.815000", "140545.305000", "140546.795000", "140548.285000", "140549.775000", "140551.265000", "140552.755000", "140554.245000", "140555.735000", "140557.225000", "140558.715000", "140600.205000", "140601.695000", "140603.185000", "140604.675000", "140606.165000", "140607.655000", "140609.145000", "140610.635000", "140612.125000", "140613.615000", "140615.105000", "140616.595000", "140618.085000", "140619.575000", "140621.065000", "140622.555000", "140624.045000", "140625.535000", "140627.025000", "140628.515000", "140630.005000", "140631.495000", "140632.985000", "140634.475000"],
      "ContentTime": ["135726.174000", "135726.177000", "135726.180000", "135726.183000", "135726.186000", "135726.189000", "135726.192000", "135726.195000", "135726.198000", "135726.201000", "135726.204000", "135726.207000", "135726.210000", "135726.213000", "135726.216000", "135726.219000", "135726.222000", "135726.225000", "135726.228000", "135726.230000", "135726.233000", "135726.236000", "135726.244000", "135726.247000", "135726.250000", "135726.267000", "135726.270000", "135726.273000", "135726.276000", "135726.280000", "135726.283000", "135726.286000", "135726.289000", "135746.144000", "135746.147000", "135746.150000", "135746.153000", "135746.156000", "135746.159000", "135746.162000", "135746.165000", "135746.168000", "135746.171000", "135746.174000", "135746.177000", "135746.180000", "135746.183000", "135746.186000", "135746.188000", "135746.192000", "135746.194000", "135746.197000", "135746.200000", "135806.145000", "135806.148000", "135806.151000", "135806.154000", "135806.157000", "135806.160000", "135806.163000", "135806.166000", "135806.169000", "135806.172000", "135806.174000", "135806.177000", "135806.180000", "135806.183000", "135806.186000", "135806.189000", "135806.192000", "135806.195000", "135806.198000", "135806.201000", "135826.145000", "135826.148000", "135826.151000", "135826.154000", "135826.157000", "135826.160000", "135826.163000", "135826.166000", "135826.169000", "135826.172000", "135826.175000", "135826.177000", "135826.181000", "135826.183000", "135826.186000", "135826.189000", "135826.192000", "135826.196000", "135826.199000", "135826.202000", "135906.144000", "135906.147000", "135906.150000", "135906.153000", "135906.156000", "135906.159000", "135906.162000", "135906.165000", "135906.168000", "135906.171000", "135906.174000", "135906.177000", "135906.180000", "135906.183000", "135906.186000", "135906.189000", "135906.192000", "135906.195000", "135906.198000", "135906.201000", "135906.204000", "135906.207000", "135906.210000", "135906.213000", "135906.216000", "135906.219000", "135906.222000", "135906.225000", "135906.228000", "135906.231000", "135946.144000", "135946.147000", "135946.150000", "135946.153000", "135946.171000", "135946.173000", "135946.176000", "135946.179000", "135946.182000", "135946.185000", "135946.188000", "135946.191000", "135946.194000", "135946.197000", "135946.200000", "135946.203000", "135946.206000", "135946.209000", "135946.212000", "135946.215000", "135946.218000", "135946.221000", "135946.224000", "135946.227000", "135946.230000", "135946.233000", "135946.236000", "140026.145000", "140026.148000", "140026.151000", "140026.154000", "140026.157000", "140026.160000", "140026.163000", "140026.166000", "140026.169000", "140026.172000", "140026.184000", "140026.187000", "140026.190000", "140026.193000", "140026.196000", "140026.199000", "140026.202000", "140026.204000", "140026.207000", "140026.211000", "140026.214000", "140026.217000", "140026.219000", "140026.231000", "140026.234000", "140026.236000", "140026.239000", "140106.144000", "140106.147000", "140106.150000", "140106.153000", "140106.156000", "140106.159000", "140106.162000", "140106.165000", "140106.168000", "140106.171000", "140106.174000", "140106.177000", "140106.180000", "140106.183000", "140106.186000", "140106.189000", "140106.192000", "140106.195000", "140106.198000", "140106.201000", "140106.204000", "140106.207000", "140106.210000", "140106.213000", "140106.216000", "140106.219000", "140106.222000", "140146.144000", "140146.147000", "140146.150000", "140146.153000", "140146.166000", "140146.169000", "140146.172000", "140146.175000", "140146.178000", "140146.181000", "140146.184000", "140146.187000", "140146.190000", "140146.193000", "140146.196000", "140146.199000", "140146.202000", "140146.205000", "140146.208000", "140146.211000", "140146.214000", "140146.217000", "140146.220000", "140146.223000", "140146.226000", "140146.229000", "140146.232000", "140226.144000", "140226.147000", "140226.150000", "140226.153000", "140226.156000", "140226.159000", "140226.162000", "140226.165000", "140226.168000", "140226.171000", "140226.174000", "140226.177000", "140226.180000", "140226.183000", "140226.186000", "140226.189000", "140226.192000", "140226.195000", "140226.198000", "140226.201000", "140226.204000", "140226.213000", "140226.216000", "140226.219000", "140226.222000", "140226.225000", "140226.228000", "140306.145000", "140306.148000", "140306.151000", "140306.154000", "140306.157000", "140306.160000", "140306.163000", "140306.166000", "140306.169000", "140306.172000", "140306.175000", "140306.178000", "140306.181000", "140306.184000", "140306.187000", "140306.190000", "140306.193000", "140306.196000", "140306.199000", "140306.202000", "140306.205000", "140306.208000", "140306.211000", "140306.214000", "140306.217000", "140306.220000", "140306.223000", "140346.144000", "140346.147000", "140346.150000", "140346.153000", "140346.156000", "140346.159000", "140346.162000", "140346.165000", "140346.168000", "140346.171000", "140346.174000", "140346.177000", "140346.180000", "140346.183000", "140346.186000", "140346.189000", "140346.192000", "140346.195000", "140346.198000", "140346.201000", "140346.204000", "140346.207000", "140346.210000", "140346.213000", "140346.216000", "140346.219000", "140426.144000", "140426.147000", "140426.150000", "140426.153000", "140426.156000", "140426.159000", "140426.162000", "140426.165000", "140426.174000", "140426.177000", "140426.179000", "140426.182000", "140426.186000", "140426.188000", "140426.191000", "140426.195000", "140426.198000", "140426.201000", "140426.203000", "140426.206000", "140426.210000", "140426.212000", "140426.215000", "140426.218000", "140426.221000", "140426.224000", "140426.227000", "140506.145000", "140506.148000", "140506.151000", "140506.154000", "140506.157000", "140506.160000", "140506.163000", "140506.166000", "140506.169000", "140506.172000", "140506.175000", "140506.178000", "140506.181000", "140506.184000", "140506.187000", "140506.190000", "140506.193000", "140506.196000", "140506.199000", "140506.202000", "140506.205000", "140506.208000", "140506.211000", "140506.214000", "140506.217000", "140506.220000", "140506.222000", "140546.144000", "140546.147000", "140546.158000", "140546.161000", "140546.164000", "140546.167000", "140546.171000", "140546.174000", "140546.176000", "140546.179000", "140546.183000", "140546.186000", "140546.188000", "140546.191000", "140546.195000", "140546.198000", "140546.200000", "140546.203000", "140546.206000", "140546.209000", "140546.212000", "140546.215000", "140546.218000", "140546.221000", "140546.224000", "140546.227000", "140546.230000", "140626.144000", "140626.147000", "140626.150000", "140626.153000", "140626.156000", "140626.159000", "140626.162000", "140626.165000", "140626.168000", "140626.171000", "140626.174000", "140626.177000", "140626.180000", "140626.183000", "140626.186000", "140626.189000", "140626.192000", "140626.195000", "140626.198000", "140626.201000", "140626.204000", "140626.207000", "140626.210000", "140626.213000", "140626.216000", "140626.219000", "140626.222000", "140636.267000", "140636.270000", "140636.273000", "140636.276000", "140636.279000", "140636.282000", "140636.285000"],
      "InstanceCreationTime": ["135726.174000", "135726.177000", "135726.180000", "135726.183000", "135726.186000", "135726.189000", "135726.192000", "135726.195000", "135726.198000", "135726.201000", "135726.204000", "135726.207000", "135726.210000", "135726.213000", "135726.216000", "135726.219000", "135726.222000", "135726.225000", "135726.228000", "135726.230000", "135726.233000", "135726.236000", "135726.244000", "135726.247000", "135726.250000", "135726.267000", "135726.270000", "135726.273000", "135726.276000", "135726.280000", "135726.283000", "135726.286000", "135726.289000", "135746.144000", "135746.147000", "135746.150000", "135746.153000", "135746.156000", "135746.159000", "135746.162000", "135746.165000", "135746.168000", "135746.171000", "135746.174000", "135746.177000", "135746.180000", "135746.183000", "135746.186000", "135746.188000", "135746.192000", "135746.194000", "135746.197000", "135746.200000", "135806.145000", "135806.148000", "135806.151000", "135806.154000", "135806.157000", "135806.160000", "135806.163000", "135806.166000", "135806.169000", "135806.172000", "135806.174000", "135806.177000", "135806.180000", "135806.183000", "135806.186000", "135806.189000", "135806.192000", "135806.195000", "135806.198000", "135806.201000", "135826.145000", "135826.148000", "135826.151000", "135826.154000", "135826.157000", "135826.160000", "135826.163000", "135826.166000", "135826.169000", "135826.172000", "135826.175000", "135826.177000", "135826.181000", "135826.183000", "135826.186000", "135826.189000", "135826.192000", "135826.196000", "135826.199000", "135826.202000", "135906.144000", "135906.147000", "135906.150000", "135906.153000", "135906.156000", "135906.159000", "135906.162000", "135906.165000", "135906.168000", "135906.171000", "135906.174000", "135906.177000", "135906.180000", "135906.183000", "135906.186000", "135906.189000", "135906.192000", "135906.195000", "135906.198000", "135906.201000", "135906.204000", "135906.207000", "135906.210000", "135906.213000", "135906.216000", "135906.219000", "135906.222000", "135906.225000", "135906.228000", "135906.231000", "135946.144000", "135946.147000", "135946.150000", "135946.153000", "135946.171000", "135946.173000", "135946.176000", "135946.179000", "135946.182000", "135946.185000", "135946.188000", "135946.191000", "135946.194000", "135946.197000", "135946.200000", "135946.203000", "135946.206000", "135946.209000", "135946.212000", "135946.215000", "135946.218000", "135946.221000", "135946.224000", "135946.227000", "135946.230000", "135946.233000", "135946.236000", "140026.145000", "140026.148000", "140026.151000", "140026.154000", "140026.157000", "140026.160000", "140026.163000", "140026.166000", "140026.169000", "140026.172000", "140026.184000", "140026.187000", "140026.190000", "140026.193000", "140026.196000", "140026.199000", "140026.202000", "140026.204000", "140026.207000", "140026.211000", "140026.214000", "140026.217000", "140026.219000", "140026.231000", "140026.234000", "140026.236000", "140026.239000", "140106.144000", "140106.147000", "140106.150000", "140106.153000", "140106.156000", "140106.159000", "140106.162000", "140106.165000", "140106.168000", "140106.171000", "140106.174000", "140106.177000", "140106.180000", "140106.183000", "140106.186000", "140106.189000", "140106.192000", "140106.195000", "140106.198000", "140106.201000", "140106.204000", "140106.207000", "140106.210000", "140106.213000", "140106.216000", "140106.219000", "140106.222000", "140146.144000", "140146.147000", "140146.150000", "140146.153000", "140146.166000", "140146.169000", "140146.172000", "140146.175000", "140146.178000", "140146.181000", "140146.184000", "140146.187000", "140146.190000", "140146.193000", "140146.196000", "140146.199000", "140146.202000", "140146.205000", "140146.208000", "140146.211000", "140146.214000", "140146.217000", "140146.220000", "140146.223000", "140146.226000", "140146.229000", "140146.232000", "140226.144000", "140226.147000", "140226.150000", "140226.153000", "140226.156000", "140226.159000", "140226.162000", "140226.165000", "140226.168000", "140226.171000", "140226.174000", "140226.177000", "140226.180000", "140226.183000", "140226.186000", "140226.189000", "140226.192000", "140226.195000", "140226.198000", "140226.201000", "140226.204000", "140226.213000", "140226.216000", "140226.219000", "140226.222000", "140226.225000", "140226.228000", "140306.145000", "140306.148000", "140306.151000", "140306.154000", "140306.157000", "140306.160000", "140306.163000", "140306.166000", "140306.169000", "140306.172000", "140306.175000", "140306.178000", "140306.181000", "140306.184000", "140306.187000", "140306.190000", "140306.193000", "140306.196000", "140306.199000", "140306.202000", "140306.205000", "140306.208000", "140306.211000", "140306.214000", "140306.217000", "140306.220000", "140306.223000", "140346.144000", "140346.147000", "140346.150000", "140346.153000", "140346.156000", "140346.159000", "140346.162000", "140346.165000", "140346.168000", "140346.171000", "140346.174000", "140346.177000", "140346.180000", "140346.183000", "140346.186000", "140346.189000", "140346.192000", "140346.195000", "140346.198000", "140346.201000", "140346.204000", "140346.207000", "140346.210000", "140346.213000", "140346.216000", "140346.219000", "140426.144000", "140426.147000", "140426.150000", "140426.153000", "140426.156000", "140426.159000", "140426.162000", "140426.165000", "140426.174000", "140426.177000", "140426.179000", "140426.182000", "140426.186000", "140426.188000", "140426.191000", "140426.195000", "140426.198000", "140426.201000", "140426.203000", "140426.206000", "140426.210000", "140426.212000", "140426.215000", "140426.218000", "140426.221000", "140426.224000", "140426.227000", "140506.145000", "140506.148000", "140506.151000", "140506.154000", "140506.157000", "140506.160000", "140506.163000", "140506.166000", "140506.169000", "140506.172000", "140506.175000", "140506.178000", "140506.181000", "140506.184000", "140506.187000", "140506.190000", "140506.193000", "140506.196000", "140506.199000", "140506.202000", "140506.205000", "140506.208000", "140506.211000", "140506.214000", "140506.217000", "140506.220000", "140506.222000", "140546.144000", "140546.147000", "140546.158000", "140546.161000", "140546.164000", "140546.167000", "140546.171000", "140546.174000", "140546.176000", "140546.179000", "140546.183000", "140546.186000", "140546.188000", "140546.191000", "140546.195000", "140546.198000", "140546.200000", "140546.203000", "140546.206000", "140546.209000", "140546.212000", "140546.215000", "140546.218000", "140546.221000", "140546.224000", "140546.227000", "140546.230000", "140626.144000", "140626.147000", "140626.150000", "140626.153000", "140626.156000", "140626.159000", "140626.162000", "140626.165000", "140626.168000", "140626.171000", "140626.174000", "140626.177000", "140626.180000", "140626.183000", "140626.186000", "140626.189000", "140626.192000", "140626.195000", "140626.198000", "140626.201000", "140626.204000", "140626.207000", "140626.210000", "140626.213000", "140626.216000", "140626.219000", "140626.222000", "140636.267000", "140636.270000", "140636.273000", "140636.276000", "140636.279000", "140636.282000", "140636.285000"],
