{
  "AcquisitionMatrixPE": 104,
  "AcquisitionNumber": 1,
  "AcquisitionTime": "15:43:46.107500",
  "BandwidthPerPixelPhaseEncode": 17.17,
  "BaseResolution": 104,
  "BodyPartExamined": "BRAIN",
  "CoilString": "HC1-7;NC1_2",
  "ConsistencyInfo": "N4_VE11C_LATEST_20160120",
  "ConversionSoftware": "dcm2niix",
  "ConversionSoftwareVersion": "v1.0.20190902",
  "DerivedVendorReportedEchoSpacing": 0.000560011,
  "DeviceSerialNumber": "167006",
  "DwellTime": 2.1e-06,
  "EchoTime": 0.037,
  "EchoTrainLength": 104,
  "EffectiveEchoSpacing": 0.000560011,
  "FlipAngle": 52,
  "ImageComments": "Unaliased_MB4_PE3_LB",
  "ImageOrientationPatientDICOM": [0.999556, -0.0262214, 0.0141591, 0.0296661, 0.920576, -0.389435],
  "ImageType": [
    "ORIGINAL",
    "PRIMARY",
    "M",
    "MB",
    "ND",
    "MOSAIC"
],
  "ImagingFrequency": 123.259,
  "InPlanePhaseEncodingDirectionDICOM": "COL",
  "InstitutionAddress": "Chemin_Queen-Mary_4565_Montreal_District_CA_H3W_1W5",
  "InstitutionName": "IUGM",
  "InstitutionalDepartmentName": "Department",
  "MRAcquisitionType": "2D",
  "MagneticFieldStrength": 3,
  "Manufacturer": "Siemens",
  "ManufacturersModelName": "Prisma_fit",
  "Modality": "MR",
  "MultibandAccelerationFactor": 4,
  "PartialFourier": 1,
  "PatientPosition": "HFS",
  "PercentPhaseFOV": 100,
  "PhaseEncodingDirection": "j",
  "PhaseEncodingSteps": 104,
  "PhaseResolution": 1,
  "PixelBandwidth": 2290,
  "ProcedureStepDescription": "games_shinobi",
  "ProtocolName": "func_task-shinobi_run-2",
  "PulseSequenceDetails": "%CustomerSeq%_cmrr_mbep2d_bold",
  "ReceiveCoilActiveElements": "HC1-7;NC1,2",
  "ReceiveCoilName": "HeadNeck_64",
  "ReconMatrixPE": 104,
  "RepetitionTime": 1.49,
  "SAR": 0.0303228,
  "ScanOptions": "FS",
  "ScanningSequence": "EP",
  "SequenceName": "epfid2d1_104",
  "SequenceVariant": "SK_SS",
  "SeriesDescription": "func_task-shinobi_run-2",
  "SeriesNumber": 13,
  "ShimSetting": [639, -7244, -8883, 576, 37, -240, -99, 0],
  "SliceThickness": 2,
  "SliceTiming": [0, 0.7825, 0.0975, 0.88, 0.195, 0.98, 0.2925, 1.0775, 0.39, 1.175, 0.49, 1.2725, 0.5875, 1.37, 0.685, 0, 0.7825, 0.0975, 0.88, 0.195, 0.98, 0.2925, 1.0775, 0.39, 1.175, 0.49, 1.2725, 0.5875, 1.37, 0.685, 0, 0.7825, 0.0975, 0.88, 0.195, 0.98, 0.2925, 1.0775, 0.39, 1.175, 0.49, 1.2725, 0.5875, 1.37, 0.685, 0, 0.7825, 0.0975, 0.88, 0.195, 0.98, 0.2925, 1.0775, 0.39, 1.175, 0.49, 1.2725, 0.5875, 1.37, 0.685],
  "SoftwareVersions": "syngo_MR_E11",
  "SpacingBetweenSlices": 2,
  "StationName": "MRC35049",
  "TaskName": "shinobi",
  "TotalReadoutTime": 0.0576811,
  "TxRefAmp": 220.513,
  "WipMemBlock": "9ef7f7d1-01c0-4adc-b9bb-ac4721a8a759||Sequence: R016 ve11c/master r/e634e98; Dec 19 2017 11:00:25 by eja",
  "dcmmeta_affine": [
    [-1.9991117715835571, 0.05933212861418724, 0.005646075587719679, 103.88074493408203],
    [0.05244285985827446, 1.841152310371399, -0.7793638110160828, -63.748111724853516],
    [0.028318297117948532, 0.77886962890625, 1.8418904542922974, -84.5252685546875],
    [0.0, 0.0, 0.0, 1.0]
],
  "dcmmeta_reorient_transform": [
    [0.0, -1.0, 0.0, 103.0],
    [1.0, 0.0, 0.0, 0.0],
    [0.0, 0.0, 1.0, 0.0],
    [0.0, 0.0, 0.0, 1.0]
],
  "dcmmeta_shape": [104, 104, 60, 512],
  "dcmmeta_slice_dim": 2,
  "dcmmeta_version": 0.6,
  "global": {
    "const": {
      "AcquisitionMatrix": [104, 0, 0, 104],
      "AngioFlag": "N",
      "BitsAllocated": 16,
      "BitsStored": 16,
      "BodyPartExamined": "BRAIN",
      "Columns": 832,
      "EchoNumbers": 1,
      "EchoTime": 37.0,
      "EchoTrainLength": 104,
      "FlipAngle": 52.0,
      "HighBit": 15,
      "ImageOrientationPatient": [0.99955587893896, -0.026221429751, 0.01415914899943, 0.02966606371959, 0.92057615712427, -0.3894348001883],
      "ImagePositionPatient": [-859.26552642246, -776.98081872145, 268.89897756184],
      "ImageType": [
        "ORIGINAL",
        "PRIMARY",
        "M",
        "MB",
        "ND",
        "MOSAIC"
],
      "ImagedNucleus": "1H",
      "ImagingFrequency": 123.259058,
      "InPlanePhaseEncodingDirection": "COL",
      "MRAcquisitionType": "2D",
      "MagneticFieldStrength": 3.0,
      "Manufacturer": "SIEMENS",
      "ManufacturerModelName": "Prisma_fit",
      "Modality": "MR",
      "NumberOfAverages": 1.0,
      "NumberOfPhaseEncodingSteps": 104,
      "PercentPhaseFieldOfView": 100.0,
      "PercentSampling": 100.0,
      "PerformedProcedureStepStartTime": "134348.280000",
      "PhotometricInterpretation": "MONOCHROME2",
      "PixelBandwidth": 2290.0,
      "PixelRepresentation": 0,
      "PixelSpacing": [2.0, 2.0],
      "ProtocolName": "func_task-shinobi_run-2",
      "RepetitionTime": 1490.0,
      "Rows": 832,
      "SAR": 0.0303228433033,
      "SamplesPerPixel": 1,
      "ScanOptions": "FS",
      "ScanningSequence": "EP",
      "SequenceName": "epfid2d1_104",
      "SequenceVariant": [
        "SK",
        "SS"
],
      "SeriesDescription": "func_task-shinobi_run-2",
      "SeriesNumber": 13,
      "SeriesTime": "154508.427000",
      "SliceLocation": -52.708393382257,
      "SliceThickness": 2.0,
      "SmallestImagePixelValue": 0,
      "SoftwareVersions": "syngo MR E11",
      "SpacingBetweenSlices": 2.0000000412299,
      "SpecificCharacterSet": "ISO_IR 100",
      "StudyID": "1",
      "StudyTime": "134348.198000",
      "TransmitCoilName": "Body",
      "VariableFlipAngleFlag": "N",
      "WindowCenterWidthExplanation": "Algo1",
      "dBdt": 0.0},
    "slices": {}
  },
  "time": {
    "samples": {
      "AcquisitionNumber": [1, 2, 3, 4, 5, 6, 7, 8, 9, 10, 11, 12, 13, 14, 15, 16, 17, 18, 19, 20, 21, 22, 23, 24, 25, 26, 27, 28, 29, 30, 31, 32, 33, 34, 35, 36, 37, 38, 39, 40, 41, 42, 43, 44, 45, 46, 47, 48, 49, 50, 51, 52, 53, 54, 55, 56, 57, 58, 59, 60, 61, 62, 63, 64, 65, 66, 67, 68, 69, 70, 71, 72, 73, 74, 75, 76, 77, 78, 79, 80, 81, 82, 83, 84, 85, 86, 87, 88, 89, 90, 91, 92, 93, 94, 95, 96, 97, 98, 99, 100, 101, 102, 103, 104, 105, 106, 107, 108, 109, 110, 111, 112, 113, 114, 115, 116, 117, 118, 119, 120, 121, 122, 123, 124, 125, 126, 127, 128, 129, 130, 131, 132, 133, 134, 135, 136, 137, 138, 139, 140, 141, 142, 143, 144, 145, 146, 147, 148, 149, 150, 151, 152, 153, 154, 155, 156, 157, 158, 159, 160, 161, 162, 163, 164, 165, 166, 167, 168, 169, 170, 171, 172, 173, 174, 175, 176, 177, 178, 179, 180, 181, 182, 183, 184, 185, 186, 187, 188, 189, 190, 191, 192, 193, 194, 195, 196, 197, 198, 199, 200, 201, 202, 203, 204, 205, 206, 207, 208, 209, 210, 211, 212, 213, 214, 215, 216, 217, 218, 219, 220, 221, 222, 223, 224, 225, 226, 227, 228, 229, 230, 231, 232, 233, 234, 235, 236, 237, 238, 239, 240, 241, 242, 243, 244, 245, 246, 247, 248, 249, 250, 251, 252, 253, 254, 255, 256, 257, 258, 259, 260, 261, 262, 263, 264, 265, 266, 267, 268, 269, 270, 271, 272, 273, 274, 275, 276, 277, 278, 279, 280, 281, 282, 283, 284, 285, 286, 287, 288, 289, 290, 291, 292, 293, 294, 295, 296, 297, 298, 299, 300, 301, 302, 303, 304, 305, 306, 307, 308, 309, 310, 311, 312, 313, 314, 315, 316, 317, 318, 319, 320, 321, 322, 323, 324, 325, 326, 327, 328, 329, 330, 331, 332, 333, 334, 335, 336, 337, 338, 339, 340, 341, 342, 343, 344, 345, 346, 347, 348, 349, 350, 351, 352, 353, 354, 355, 356, 357, 358, 359, 360, 361, 362, 363, 364, 365, 366, 367, 368, 369, 370, 371, 372, 373, 374, 375, 376, 377, 378, 379, 380, 381, 382, 383, 384, 385, 386, 387, 388, 389, 390, 391, 392, 393, 394, 395, 396, 397, 398, 399, 400, 401, 402, 403, 404, 405, 406, 407, 408, 409, 410, 411, 412, 413, 414, 415, 416, 417, 418, 419, 420, 421, 422, 423, 424, 425, 426, 427, 428, 429, 430, 431, 432, 433, 434, 435, 436, 437, 438, 439, 440, 441, 442, 443, 444, 445, 446, 447, 448, 449, 450, 451, 452, 453, 454, 455, 456, 457, 458, 459, 460, 461, 462, 463, 464, 465, 466, 467, 468, 469, 470, 471, 472, 473, 474, 475, 476, 477, 478, 479, 480, 481, 482, 483, 484, 485, 486, 487, 488, 489, 490, 491, 492, 493, 494, 495, 496, 497, 498, 499, 500, 501, 502, 503, 504, 505, 506, 507, 508, 509, 510, 511, 512],
      "AcquisitionTime": ["154346.107500", "154347.597500", "154349.087500", "154350.577500", "154352.067500", "154353.557500", "154355.047500", "154356.537500", "154358.027500", "154359.517500", "154401.007500", "154402.497500", "154403.987500", "154405.477500", "154406.967500", "154408.457500", "154409.947500", "154411.437500", "154412.927500", "154414.417500", "154415.907500", "154417.397500", "154418.887500", "154420.377500", "154421.867500", "154423.357500", "154424.847500", "154426.337500", "154427.827500", "154429.317500", "154430.807500", "154432.297500", "154433.787500", "154435.277500", "154436.767500", "154438.257500", "154439.747500", "154441.237500", "154442.727500", "154444.217500", "154445.707500", "154447.197500", "154448.687500", "154450.177500", "154451.667500", "154453.157500", "154454.647500", "154456.137500", "154457.627500", "154459.117500", "154500.607500", "154502.097500", "154503.587500", "154505.077500", "154506.567500", "154508.057500", "154509.547500", "154511.037500", "154512.527500", "154514.017500", "154515.507500", "154516.997500", "154518.487500", "154519.977500", "154521.467500", "154522.957500", "154524.447500", "154525.937500", "154527.427500", "154528.917500", "154530.407500", "154531.897500", "154533.387500", "154534.877500", "154536.367500", "154537.857500", "154539.347500", "154540.837500", "154542.327500", "154543.817500", "154545.307500", "154546.797500", "154548.287500", "154549.777500", "154551.267500", "154552.757500", "154554.247500", "154555.737500", "154557.227500", "154558.717500", "154600.207500", "154601.697500", "154603.187500", "154604.677500", "154606.167500", "154607.657500", "154609.147500", "154610.637500", "154612.127500", "154613.617500", "154615.107500", "154616.597500", "154618.087500", "154619.577500", "154621.067500", "154622.557500", "154624.047500", "154625.537500", "154627.027500", "154628.517500", "154630.007500", "154631.497500", "154632.987500", "154634.477500", "154635.967500", "154637.457500", "154638.947500", "154640.437500", "154641.927500", "154643.417500", "154644.907500", "154646.397500", "154647.887500", "154649.377500", "154650.867500", "154652.357500", "154653.847500", "154655.337500", "154656.827500", "154658.317500", "154659.807500", "154701.297500", "154702.787500", "154704.277500", "154705.767500", "154707.257500", "154708.747500", "154710.237500", "154711.727500", "154713.217500", "154714.707500", "154716.197500", "154717.687500", "154719.177500", "154720.667500", "154722.157500", "154723.647500", "154725.137500", "154726.627500", "154728.117500", "154729.607500", "154731.097500", "154732.587500", "154734.077500", "154735.567500", "154737.057500", "154738.547500", "154740.037500", "154741.527500", "154743.017500", "154744.507500", "154745.997500", "154747.487500", "154748.977500", "154750.467500", "154751.957500", "154753.447500", "154754.937500", "154756.427500", "154757.917500", "154759.407500", "154800.897500", "154802.387500", "154803.877500", "154805.367500", "154806.857500", "154808.347500", "154809.837500", "154811.327500", "154812.817500", "154814.307500", "154815.797500", "154817.287500", "154818.777500", "154820.267500", "154821.757500", "154823.247500", "154824.737500", "154826.227500", "154827.717500", "154829.207500", "154830.697500", "154832.187500", "154833.677500", "154835.167500", "154836.657500", "154838.147500", "154839.637500", "154841.127500", "154842.617500", "154844.107500", "154845.597500", "154847.087500", "154848.577500", "154850.067500", "154851.557500", "154853.047500", "154854.537500", "154856.027500", "154857.517500", "154859.007500", "154900.497500", "154901.987500", "154903.477500", "154904.967500", "154906.457500", "154907.947500", "154909.437500", "154910.927500", "154912.417500", "154913.907500", "154915.397500", "154916.887500", "154918.377500", "154919.867500", "154921.357500", "154922.847500", "154924.337500", "154925.827500", "154927.317500", "154928.807500", "154930.297500", "154931.787500", "154933.277500", "154934.767500", "154936.257500", "154937.747500", "154939.237500", "154940.727500", "154942.217500", "154943.707500", "154945.197500", "154946.687500", "154948.177500", "154949.667500", "154951.157500", "154952.647500", "154954.137500", "154955.627500", "154957.117500", "154958.607500", "155000.097500", "155001.587500", "155003.077500", "155004.567500", "155006.057500", "155007.547500", "155009.037500", "155010.527500", "155012.017500", "155013.507500", "155014.997500", "155016.487500", "155017.977500", "155019.467500", "155020.957500", "155022.447500", "155023.937500", "155025.427500", "155026.917500", "155028.407500", "155029.897500", "155031.387500", "155032.877500", "155034.367500", "155035.857500", "155037.347500", "155038.837500", "155040.327500", "155041.817500", "155043.307500", "155044.797500", "155046.287500", "155047.777500", "155049.267500", "155050.757500", "155052.247500", "155053.737500", "155055.227500", "155056.717500", "155058.207500", "155059.697500", "155101.187500", "155102.677500", "155104.167500", "155105.657500", "155107.147500", "155108.637500", "155110.127500", "155111.617500", "155113.107500", "155114.597500", "155116.087500", "155117.577500", "155119.067500", "155120.557500", "155122.047500", "155123.537500", "155125.027500", "155126.517500", "155128.007500", "155129.497500", "155130.987500", "155132.477500", "155133.967500", "155135.457500", "155136.947500", "155138.437500", "155139.927500", "155141.417500", "155142.907500", "155144.397500", "155145.887500", "155147.377500", "155148.867500", "155150.357500", "155151.847500", "155153.337500", "155154.827500", "155156.317500", "155157.807500", "155159.297500", "155200.787500", "155202.277500", "155203.767500", "155205.257500", "155206.747500", "155208.237500", "155209.727500", "155211.217500", "155212.707500", "155214.197500", "155215.687500", "155217.177500", "155218.667500", "155220.157500", "155221.647500", "155223.137500", "155224.627500", "155226.117500", "155227.607500", "155229.097500", "155230.587500", "155232.077500", "155233.567500", "155235.057500", "155236.547500", "155238.037500", "155239.527500", "155241.017500", "155242.507500", "155243.997500", "155245.487500", "155246.977500", "155248.467500", "155249.957500", "155251.447500", "155252.937500", "155254.427500", "155255.917500", "155257.407500", "155258.897500", "155300.387500", "155301.877500", "155303.367500", "155304.857500", "155306.347500", "155307.837500", "155309.327500", "155310.817500", "155312.307500", "155313.797500", "155315.287500", "155316.777500", "155318.267500", "155319.757500", "155321.247500", "155322.737500", "155324.227500", "155325.717500", "155327.207500", "155328.697500", "155330.187500", "155331.677500", "155333.167500", "155334.657500", "155336.147500", "155337.637500", "155339.127500", "155340.617500", "155342.107500", "155343.597500", "155345.087500", "155346.577500", "155348.067500", "155349.557500", "155351.047500", "155352.537500", "155354.027500", "155355.517500", "155357.007500", "155358.497500", "155359.987500", "155401.477500", "155402.967500", "155404.457500", "155405.947500", "155407.437500", "155408.927500", "155410.417500", "155411.907500", "155413.397500", "155414.887500", "155416.377500", "155417.867500", "155419.357500", "155420.847500", "155422.337500", "155423.827500", "155425.317500", "155426.807500", "155428.297500", "155429.787500", "155431.277500", "155432.767500", "155434.257500", "155435.747500", "155437.237500", "155438.727500", "155440.217500", "155441.707500", "155443.197500", "155444.687500", "155446.177500", "155447.667500", "155449.157500", "155450.647500", "155452.137500", "155453.627500", "155455.117500", "155456.607500", "155458.097500", "155459.587500", "155501.077500", "155502.567500", "155504.057500", "155505.547500", "155507.037500", "155508.527500", "155510.017500", "155511.507500", "155512.997500", "155514.487500", "155515.977500", "155517.467500", "155518.957500", "155520.447500", "155521.937500", "155523.427500", "155524.917500", "155526.407500", "155527.897500", "155529.387500", "155530.877500", "155532.367500", "155533.857500", "155535.347500", "155536.837500", "155538.327500", "155539.817500", "155541.307500", "155542.797500", "155544.287500", "155545.777500", "155547.267500", "155548.757500", "155550.247500", "155551.737500", "155553.227500", "155554.717500", "155556.207500", "155557.697500", "155559.187500", "155600.677500", "155602.167500", "155603.657500", "155605.147500", "155606.637500", "155608.127500", "155609.617500", "155611.107500", "155612.597500", "155614.087500", "155615.577500", "155617.067500", "155618.557500", "155620.047500", "155621.537500", "155623.027500", "155624.517500", "155626.007500", "155627.497500"],
      "ContentTime": ["154508.430000", "154508.433000", "154508.436000", "154508.439000", "154508.442000", "154508.445000", "154508.448000", "154508.451000", "154508.453000", "154508.456000", "154508.459000", "154508.462000", "154508.465000", "154508.468000", "154508.471000", "154508.474000", "154508.477000", "154508.480000", "154508.482000", "154508.485000", "154508.488000", "154508.491000", "154508.494000", "154508.497000", "154508.500000", "154508.503000", "154508.506000", "154508.517000", "154508.520000", "154528.392000", "154528.395000", "154528.398000", "154528.401000", "154528.404000", "154528.406000", "154528.409000", "154528.412000", "154528.415000", "154528.418000", "154528.421000", "154528.424000", "154528.427000", "154528.429000", "154528.432000", "154528.435000", "154528.438000", "154528.441000", "154528.444000", "154528.447000", "154548.392000", "154548.395000", "154548.398000", "154548.401000", "154548.404000", "154548.406000", "154548.409000", "154548.412000", "154548.415000", "154548.418000", "154548.421000", "154548.424000", "154548.427000", "154548.430000", "154548.433000", "154548.436000", "154548.438000", "154548.441000", "154548.444000", "154548.447000", "154548.450000", "154608.392000", "154608.395000", "154608.398000", "154608.401000", "154608.403000", "154608.406000", "154608.409000", "154608.412000", "154608.415000", "154608.424000", "154608.427000", "154608.430000", "154608.432000", "154608.435000", "154608.438000", "154608.441000", "154608.444000", "154608.447000", "154608.450000", "154608.453000", "154648.405000", "154648.408000", "154648.411000", "154648.414000", "154648.417000", "154648.420000", "154648.423000", "154648.426000", "154648.429000", "154648.431000", "154648.434000", "154648.437000", "154648.440000", "154648.443000", "154648.446000", "154648.449000", "154648.452000", "154648.455000", "154648.457000", "154648.460000", "154648.463000", "154648.466000", "154648.469000", "154648.472000", "154648.475000", "154648.478000", "154648.481000", "154648.484000", "154648.486000", "154648.489000", "154648.492000", "154648.495000", "154728.392000", "154728.395000", "154728.398000", "154728.401000", "154728.404000", "154728.406000", "154728.409000", "154728.412000", "154728.415000", "154728.418000", "154728.421000", "154728.424000", "154728.427000", "154728.430000", "154728.433000", "154728.436000", "154728.439000", "154728.441000", "154728.444000", "154728.447000", "154728.450000", "154728.453000", "154728.456000", "154728.459000", "154728.462000", "154728.465000", "154728.468000", "154808.392000", "154808.395000", "154808.398000", "154808.401000", "154808.404000", "154808.407000", "154808.410000", "154808.413000", "154808.416000", "154808.418000", "154808.421000", "154808.424000", "154808.427000", "154808.430000", "154808.433000", "154808.436000", "154808.439000", "154808.442000", "154808.444000", "154808.447000", "154808.450000", "154808.453000", "154808.456000", "154808.459000", "154808.462000", "154808.465000", "154848.393000", "154848.396000", "154848.399000", "154848.402000", "154848.405000", "154848.408000", "154848.410000", "154848.413000", "154848.416000", "154848.419000", "154848.422000", "154848.425000", "154848.428000", "154848.431000", "154848.434000", "154848.437000", "154848.439000", "154848.442000", "154848.445000", "154848.448000", "154848.451000", "154848.454000", "154848.457000", "154848.460000", "154848.463000", "154848.466000", "154848.469000", "154928.392000", "154928.395000", "154928.398000", "154928.401000", "154928.404000", "154928.407000", "154928.410000", "154928.413000", "154928.415000", "154928.418000", "154928.421000", "154928.424000", "154928.427000", "154928.430000", "154928.433000", "154928.436000", "154928.439000", "154928.442000", "154928.445000", "154928.448000", "154928.451000", "154928.453000", "154928.456000", "154928.459000", "154928.462000", "154928.465000", "154928.468000", "155008.392000", "155008.395000", "155008.398000", "155008.401000", "155008.404000", "155008.407000", "155008.410000", "155008.413000", "155008.416000", "155008.419000", "155008.421000", "155008.424000", "155008.427000", "155008.430000", "155008.433000", "155008.436000", "155008.439000", "155008.442000", "155008.445000", "155008.447000", "155008.450000", "155008.453000", "155008.456000", "155008.459000", "155008.462000", "155008.465000", "155008.468000", "155048.393000", "155048.396000", "155048.399000", "155048.402000", "155048.405000", "155048.408000", "155048.411000", "155048.414000", "155048.417000", "155048.419000", "155048.422000", "155048.425000", "155048.428000", "155048.431000", "155048.434000", "155048.437000", "155048.440000", "155048.443000", "155048.446000", "155048.449000", "155048.451000", "155048.454000", "155048.457000", "155048.460000", "155048.463000", "155048.466000", "155048.469000", "155128.393000", "155128.396000", "155128.399000", "155128.402000", "155128.418000", "155128.421000", "155128.424000", "155128.427000", "155128.430000", "155128.432000", "155128.435000", "155128.438000", "155128.441000", "155128.444000", "155128.447000", "155128.450000", "155128.453000", "155128.456000", "155128.459000", "155128.462000", "155128.465000", "155128.468000", "155128.470000", "155128.473000", "155128.476000", "155128.479000", "155128.482000", "155208.392000", "155208.395000", "155208.398000", "155208.401000", "155208.404000", "155208.407000", "155208.410000", "155208.413000", "155208.416000", "155208.419000", "155208.422000", "155208.424000", "155208.427000", "155208.430000", "155208.433000", "155208.436000", "155208.439000", "155208.442000", "155208.445000", "155208.448000", "155208.451000", "155208.453000", "155208.456000", "155208.459000", "155208.462000", "155208.465000", "155208.468000", "155248.392000", "155248.395000", "155248.398000", "155248.401000", "155248.404000", "155248.407000", "155248.410000", "155248.413000", "155248.416000", "155248.419000", "155248.421000", "155248.424000", "155248.427000", "155248.430000", "155248.433000", "155248.436000", "155248.439000", "155248.442000", "155248.445000", "155248.448000", "155248.451000", "155248.453000", "155248.456000", "155248.459000", "155248.462000", "155248.466000", "155328.393000", "155328.396000", "155328.399000", "155328.402000", "155328.405000", "155328.408000", "155328.411000", "155328.414000", "155328.416000", "155328.419000", "155328.422000", "155328.425000", "155328.428000", "155328.431000", "155328.434000", "155328.437000", "155328.440000", "155328.443000", "155328.446000", "155328.448000", "155328.451000", "155328.454000", "155328.457000", "155328.460000", "155328.463000", "155328.466000", "155328.469000", "155408.392000", "155408.395000", "155408.398000", "155408.401000", "155408.404000", "155408.407000", "155408.410000", "155408.413000", "155408.416000", "155408.418000", "155408.421000", "155408.424000", "155408.427000", "155408.430000", "155408.433000", "155408.436000", "155408.439000", "155408.442000", "155408.445000", "155408.447000", "155408.450000", "155408.453000", "155408.456000", "155408.459000", "155408.462000", "155408.465000", "155408.468000", "155448.392000", "155448.395000", "155448.398000", "155448.401000", "155448.404000", "155448.407000", "155448.410000", "155448.413000", "155448.416000", "155448.419000", "155448.422000", "155448.425000", "155448.427000", "155448.430000", "155448.433000", "155448.436000", "155448.439000", "155448.442000", "155448.445000", "155448.448000", "155448.451000", "155448.454000", "155448.457000", "155448.459000", "155448.462000", "155448.465000", "155448.468000", "155528.393000", "155528.396000", "155528.399000", "155528.402000", "155528.405000", "155528.408000", "155528.411000", "155528.414000", "155528.417000", "155528.420000", "155528.423000", "155528.434000", "155528.437000", "155528.456000", "155528.459000", "155528.462000", "155528.465000", "155528.468000", "155528.471000", "155528.474000", "155528.477000", "155528.480000", "155528.483000", "155528.486000", "155528.489000", "155528.492000", "155528.495000", "155608.393000", "155608.396000", "155608.399000", "155608.402000", "155608.405000", "155608.408000", "155608.410000", "155608.413000", "155608.416000", "155608.419000", "155608.422000", "155608.425000", "155608.428000", "155608.431000", "155608.434000", "155608.437000", "155608.440000", "155608.443000", "155608.445000", "155608.448000", "155608.451000", "155608.454000", "155608.457000", "155608.460000", "155608.463000", "155608.466000", "155608.469000", "155629.633000", "155629.637000", "155629.640000", "155629.643000", "155629.645000", "155629.648000", "155629.651000", "155629.654000", "155629.657000", "155629.660000", "155629.663000", "155629.666000", "155629.669000", "155629.672000"],
