{
  "AcquisitionMatrixPE": 104,
  "AcquisitionNumber": 1,
  "AcquisitionTime": "15:31:8.507500",
  "BandwidthPerPixelPhaseEncode": 17.17,
  "BaseResolution": 104,
  "BodyPartExamined": "BRAIN",
  "CoilString": "HC1-7;NC1_2",
  "ConsistencyInfo": "N4_VE11C_LATEST_20160120",
  "ConversionSoftware": "dcm2niix",
  "ConversionSoftwareVersion": "v1.0.20190902",
  "DerivedVendorReportedEchoSpacing": 0.000560011,
  "DeviceSerialNumber": "167006",
  "DwellTime": 2.1e-06,
  "EchoTime": 0.037,
  "EchoTrainLength": 104,
  "EffectiveEchoSpacing": 0.000560011,
  "FlipAngle": 52,
  "ImageComments": "Unaliased_MB4_PE3_LB",
  "ImageOrientationPatientDICOM": [0.999556, -0.0262214, 0.0141591, 0.0296661, 0.920576, -0.389435],
  "ImageType": [
    "ORIGINAL",
    "PRIMARY",
    "M",
    "MB",
    "ND",
    "MOSAIC"
],
  "ImagingFrequency": 123.259,
  "InPlanePhaseEncodingDirectionDICOM": "COL",
  "InstitutionAddress": "Chemin_Queen-Mary_4565_Montreal_District_CA_H3W_1W5",
  "InstitutionName": "IUGM",
  "InstitutionalDepartmentName": "Department",
  "MRAcquisitionType": "2D",
  "MagneticFieldStrength": 3,
  "Manufacturer": "Siemens",
  "ManufacturersModelName": "Prisma_fit",
  "Modality": "MR",
  "MultibandAccelerationFactor": 4,
  "PartialFourier": 1,
  "PatientPosition": "HFS",
  "PercentPhaseFOV": 100,
  "PhaseEncodingDirection": "j",
  "PhaseEncodingSteps": 104,
  "PhaseResolution": 1,
  "PixelBandwidth": 2290,
  "ProcedureStepDescription": "games_shinobi",
  "ProtocolName": "func_task-shinobi_run-1",
  "PulseSequenceDetails": "%CustomerSeq%_cmrr_mbep2d_bold",
  "ReceiveCoilActiveElements": "HC1-7;NC1,2",
  "ReceiveCoilName": "HeadNeck_64",
  "ReconMatrixPE": 104,
  "RepetitionTime": 1.49,
  "SAR": 0.0303228,
  "ScanOptions": "FS",
  "ScanningSequence": "EP",
  "SequenceName": "epfid2d1_104",
  "SequenceVariant": "SK_SS",
  "SeriesDescription": "func_task-shinobi_run-1",
  "SeriesNumber": 11,
  "ShimSetting": [639, -7244, -8883, 576, 37, -240, -99, 0],
  "SliceThickness": 2,
  "SliceTiming": [0, 0.7825, 0.0975, 0.8825, 0.195, 0.98, 0.2925, 1.0775, 0.3925, 1.175, 0.49, 1.2725, 0.5875, 1.3725, 0.685, 0, 0.7825, 0.0975, 0.8825, 0.195, 0.98, 0.2925, 1.0775, 0.3925, 1.175, 0.49, 1.2725, 0.5875, 1.3725, 0.685, 0, 0.7825, 0.0975, 0.8825, 0.195, 0.98, 0.2925, 1.0775, 0.3925, 1.175, 0.49, 1.2725, 0.5875, 1.3725, 0.685, 0, 0.7825, 0.0975, 0.8825, 0.195, 0.98, 0.2925, 1.0775, 0.3925, 1.175, 0.49, 1.2725, 0.5875, 1.3725, 0.685],
  "SoftwareVersions": "syngo_MR_E11",
  "SpacingBetweenSlices": 2,
  "StationName": "MRC35049",
  "TaskName": "shinobi",
  "TotalReadoutTime": 0.0576811,
  "TxRefAmp": 220.513,
  "WipMemBlock": "6a4ab35d-e666-494f-9613-676c085f6ffe||Sequence: R016 ve11c/master r/e634e98; Dec 19 2017 11:00:25 by eja",
  "dcmmeta_affine": [
    [-1.9991117715835571, 0.05933212861418724, 0.005646075587719679, 103.88074493408203],
    [0.05244285985827446, 1.841152310371399, -0.7793638110160828, -63.748111724853516],
    [0.028318297117948532, 0.77886962890625, 1.8418904542922974, -84.5252685546875],
    [0.0, 0.0, 0.0, 1.0]
],
  "dcmmeta_reorient_transform": [
    [0.0, -1.0, 0.0, 103.0],
    [1.0, 0.0, 0.0, 0.0],
    [0.0, 0.0, 1.0, 0.0],
    [0.0, 0.0, 0.0, 1.0]
],
  "dcmmeta_shape": [104, 104, 60, 477],
  "dcmmeta_slice_dim": 2,
  "dcmmeta_version": 0.6,
  "global": {
    "const": {
      "AcquisitionMatrix": [104, 0, 0, 104],
      "AngioFlag": "N",
      "BitsAllocated": 16,
      "BitsStored": 16,
      "BodyPartExamined": "BRAIN",
      "Columns": 832,
      "EchoNumbers": 1,
      "EchoTime": 37.0,
      "EchoTrainLength": 104,
      "FlipAngle": 52.0,
      "HighBit": 15,
      "ImageOrientationPatient": [0.99955587893896, -0.026221429751, 0.01415914899943, 0.02966606371959, 0.92057615712427, -0.3894348001883],
      "ImagePositionPatient": [-859.26552642246, -776.98081872145, 268.89897756184],
      "ImageType": [
        "ORIGINAL",
        "PRIMARY",
        "M",
        "MB",
        "ND",
        "MOSAIC"
],
      "ImagedNucleus": "1H",
      "ImagingFrequency": 123.259048,
      "InPlanePhaseEncodingDirection": "COL",
      "MRAcquisitionType": "2D",
      "MagneticFieldStrength": 3.0,
      "Manufacturer": "SIEMENS",
      "ManufacturerModelName": "Prisma_fit",
      "Modality": "MR",
      "NumberOfAverages": 1.0,
      "NumberOfPhaseEncodingSteps": 104,
      "PercentPhaseFieldOfView": 100.0,
      "PercentSampling": 100.0,
      "PerformedProcedureStepStartTime": "134348.280000",
      "PhotometricInterpretation": "MONOCHROME2",
      "PixelBandwidth": 2290.0,
      "PixelRepresentation": 0,
      "PixelSpacing": [2.0, 2.0],
      "ProtocolName": "func_task-shinobi_run-1",
      "RepetitionTime": 1490.0,
      "Rows": 832,
      "SAR": 0.0303228433033,
      "SamplesPerPixel": 1,
      "ScanOptions": "FS",
      "ScanningSequence": "EP",
      "SequenceName": "epfid2d1_104",
      "SequenceVariant": [
        "SK",
        "SS"
],
      "SeriesDescription": "func_task-shinobi_run-1",
      "SeriesNumber": 11,
      "SeriesTime": "153212.923000",
      "SliceLocation": -52.708393382257,
      "SliceThickness": 2.0,
      "SmallestImagePixelValue": 0,
      "SoftwareVersions": "syngo MR E11",
      "SpacingBetweenSlices": 2.0000000412299,
      "SpecificCharacterSet": "ISO_IR 100",
      "StudyID": "1",
      "StudyTime": "134348.198000",
      "TransmitCoilName": "Body",
      "VariableFlipAngleFlag": "N",
      "WindowCenterWidthExplanation": "Algo1",
      "dBdt": 0.0},
    "slices": {}
  },
  "time": {
    "samples": {
      "AcquisitionNumber": [1, 2, 3, 4, 5, 6, 7, 8, 9, 10, 11, 12, 13, 14, 15, 16, 17, 18, 19, 20, 21, 22, 23, 24, 25, 26, 27, 28, 29, 30, 31, 32, 33, 34, 35, 36, 37, 38, 39, 40, 41, 42, 43, 44, 45, 46, 47, 48, 49, 50, 51, 52, 53, 54, 55, 56, 57, 58, 59, 60, 61, 62, 63, 64, 65, 66, 67, 68, 69, 70, 71, 72, 73, 74, 75, 76, 77, 78, 79, 80, 81, 82, 83, 84, 85, 86, 87, 88, 89, 90, 91, 92, 93, 94, 95, 96, 97, 98, 99, 100, 101, 102, 103, 104, 105, 106, 107, 108, 109, 110, 111, 112, 113, 114, 115, 116, 117, 118, 119, 120, 121, 122, 123, 124, 125, 126, 127, 128, 129, 130, 131, 132, 133, 134, 135, 136, 137, 138, 139, 140, 141, 142, 143, 144, 145, 146, 147, 148, 149, 150, 151, 152, 153, 154, 155, 156, 157, 158, 159, 160, 161, 162, 163, 164, 165, 166, 167, 168, 169, 170, 171, 172, 173, 174, 175, 176, 177, 178, 179, 180, 181, 182, 183, 184, 185, 186, 187, 188, 189, 190, 191, 192, 193, 194, 195, 196, 197, 198, 199, 200, 201, 202, 203, 204, 205, 206, 207, 208, 209, 210, 211, 212, 213, 214, 215, 216, 217, 218, 219, 220, 221, 222, 223, 224, 225, 226, 227, 228, 229, 230, 231, 232, 233, 234, 235, 236, 237, 238, 239, 240, 241, 242, 243, 244, 245, 246, 247, 248, 249, 250, 251, 252, 253, 254, 255, 256, 257, 258, 259, 260, 261, 262, 263, 264, 265, 266, 267, 268, 269, 270, 271, 272, 273, 274, 275, 276, 277, 278, 279, 280, 281, 282, 283, 284, 285, 286, 287, 288, 289, 290, 291, 292, 293, 294, 295, 296, 297, 298, 299, 300, 301, 302, 303, 304, 305, 306, 307, 308, 309, 310, 311, 312, 313, 314, 315, 316, 317, 318, 319, 320, 321, 322, 323, 324, 325, 326, 327, 328, 329, 330, 331, 332, 333, 334, 335, 336, 337, 338, 339, 340, 341, 342, 343, 344, 345, 346, 347, 348, 349, 350, 351, 352, 353, 354, 355, 356, 357, 358, 359, 360, 361, 362, 363, 364, 365, 366, 367, 368, 369, 370, 371, 372, 373, 374, 375, 376, 377, 378, 379, 380, 381, 382, 383, 384, 385, 386, 387, 388, 389, 390, 391, 392, 393, 394, 395, 396, 397, 398, 399, 400, 401, 402, 403, 404, 405, 406, 407, 408, 409, 410, 411, 412, 413, 414, 415, 416, 417, 418, 419, 420, 421, 422, 423, 424, 425, 426, 427, 428, 429, 430, 431, 432, 433, 434, 435, 436, 437, 438, 439, 440, 441, 442, 443, 444, 445, 446, 447, 448, 449, 450, 451, 452, 453, 454, 455, 456, 457, 458, 459, 460, 461, 462, 463, 464, 465, 466, 467, 468, 469, 470, 471, 472, 473, 474, 475, 476, 477],
      "AcquisitionTime": ["153108.507500", "153109.997500", "153111.487500", "153112.977500", "153114.467500", "153115.957500", "153117.447500", "153118.937500", "153120.427500", "153121.917500", "153123.407500", "153124.897500", "153126.387500", "153127.877500", "153129.367500", "153130.857500", "153132.347500", "153133.837500", "153135.327500", "153136.817500", "153138.307500", "153139.797500", "153141.287500", "153142.777500", "153144.267500", "153145.757500", "153147.247500", "153148.737500", "153150.227500", "153151.717500", "153153.207500", "153154.697500", "153156.187500", "153157.677500", "153159.167500", "153200.657500", "153202.147500", "153203.637500", "153205.127500", "153206.617500", "153208.107500", "153209.597500", "153211.087500", "153212.577500", "153214.067500", "153215.557500", "153217.047500", "153218.537500", "153220.027500", "153221.517500", "153223.007500", "153224.497500", "153225.987500", "153227.477500", "153228.967500", "153230.457500", "153231.947500", "153233.437500", "153234.927500", "153236.417500", "153237.907500", "153239.397500", "153240.887500", "153242.377500", "153243.867500", "153245.357500", "153246.847500", "153248.337500", "153249.827500", "153251.317500", "153252.807500", "153254.297500", "153255.787500", "153257.277500", "153258.767500", "153300.257500", "153301.747500", "153303.237500", "153304.727500", "153306.217500", "153307.707500", "153309.197500", "153310.687500", "153312.177500", "153313.667500", "153315.157500", "153316.647500", "153318.137500", "153319.627500", "153321.117500", "153322.607500", "153324.097500", "153325.587500", "153327.077500", "153328.567500", "153330.057500", "153331.547500", "153333.037500", "153334.527500", "153336.017500", "153337.507500", "153338.997500", "153340.487500", "153341.977500", "153343.467500", "153344.957500", "153346.447500", "153347.937500", "153349.427500", "153350.917500", "153352.407500", "153353.897500", "153355.387500", "153356.877500", "153358.367500", "153359.857500", "153401.347500", "153402.837500", "153404.327500", "153405.817500", "153407.307500", "153408.797500", "153410.287500", "153411.777500", "153413.267500", "153414.757500", "153416.247500", "153417.737500", "153419.227500", "153420.717500", "153422.207500", "153423.697500", "153425.187500", "153426.677500", "153428.167500", "153429.657500", "153431.147500", "153432.637500", "153434.127500", "153435.617500", "153437.107500", "153438.597500", "153440.087500", "153441.577500", "153443.067500", "153444.557500", "153446.047500", "153447.537500", "153449.027500", "153450.517500", "153452.007500", "153453.497500", "153454.987500", "153456.477500", "153457.967500", "153459.457500", "153500.947500", "153502.437500", "153503.927500", "153505.417500", "153506.907500", "153508.397500", "153509.887500", "153511.377500", "153512.867500", "153514.357500", "153515.847500", "153517.337500", "153518.827500", "153520.317500", "153521.807500", "153523.297500", "153524.787500", "153526.277500", "153527.767500", "153529.257500", "153530.747500", "153532.237500", "153533.727500", "153535.217500", "153536.707500", "153538.197500", "153539.687500", "153541.177500", "153542.667500", "153544.157500", "153545.647500", "153547.137500", "153548.627500", "153550.117500", "153551.607500", "153553.097500", "153554.587500", "153556.077500", "153557.567500", "153559.057500", "153600.547500", "153602.037500", "153603.527500", "153605.017500", "153606.507500", "153607.997500", "153609.487500", "153610.977500", "153612.467500", "153613.957500", "153615.447500", "153616.937500", "153618.427500", "153619.917500", "153621.407500", "153622.897500", "153624.387500", "153625.877500", "153627.367500", "153628.857500", "153630.347500", "153631.837500", "153633.327500", "153634.817500", "153636.307500", "153637.797500", "153639.287500", "153640.777500", "153642.267500", "153643.757500", "153645.247500", "153646.737500", "153648.227500", "153649.717500", "153651.207500", "153652.697500", "153654.187500", "153655.677500", "153657.167500", "153658.657500", "153700.147500", "153701.637500", "153703.127500", "153704.617500", "153706.107500", "153707.597500", "153709.087500", "153710.577500", "153712.067500", "153713.557500", "153715.047500", "153716.537500", "153718.027500", "153719.517500", "153721.007500", "153722.497500", "153723.987500", "153725.477500", "153726.967500", "153728.457500", "153729.947500", "153731.437500", "153732.927500", "153734.417500", "153735.907500", "153737.397500", "153738.887500", "153740.377500", "153741.867500", "153743.357500", "153744.847500", "153746.337500", "153747.827500", "153749.317500", "153750.807500", "153752.297500", "153753.787500", "153755.277500", "153756.767500", "153758.257500", "153759.747500", "153801.237500", "153802.727500", "153804.217500", "153805.707500", "153807.197500", "153808.687500", "153810.177500", "153811.667500", "153813.157500", "153814.647500", "153816.137500", "153817.627500", "153819.117500", "153820.607500", "153822.097500", "153823.587500", "153825.077500", "153826.567500", "153828.057500", "153829.547500", "153831.037500", "153832.527500", "153834.017500", "153835.507500", "153836.997500", "153838.487500", "153839.977500", "153841.467500", "153842.957500", "153844.447500", "153845.937500", "153847.427500", "153848.917500", "153850.407500", "153851.897500", "153853.387500", "153854.877500", "153856.367500", "153857.857500", "153859.347500", "153900.837500", "153902.327500", "153903.817500", "153905.307500", "153906.797500", "153908.287500", "153909.777500", "153911.267500", "153912.757500", "153914.247500", "153915.737500", "153917.227500", "153918.717500", "153920.207500", "153921.697500", "153923.187500", "153924.677500", "153926.167500", "153927.657500", "153929.147500", "153930.637500", "153932.127500", "153933.617500", "153935.107500", "153936.597500", "153938.087500", "153939.577500", "153941.067500", "153942.557500", "153944.047500", "153945.537500", "153947.027500", "153948.517500", "153950.007500", "153951.497500", "153952.987500", "153954.477500", "153955.967500", "153957.457500", "153958.947500", "154000.437500", "154001.927500", "154003.417500", "154004.907500", "154006.397500", "154007.887500", "154009.377500", "154010.867500", "154012.357500", "154013.847500", "154015.337500", "154016.827500", "154018.317500", "154019.807500", "154021.297500", "154022.787500", "154024.277500", "154025.767500", "154027.257500", "154028.747500", "154030.237500", "154031.727500", "154033.217500", "154034.707500", "154036.197500", "154037.687500", "154039.177500", "154040.667500", "154042.157500", "154043.647500", "154045.137500", "154046.627500", "154048.117500", "154049.607500", "154051.097500", "154052.587500", "154054.077500", "154055.567500", "154057.057500", "154058.547500", "154100.037500", "154101.527500", "154103.017500", "154104.507500", "154105.997500", "154107.487500", "154108.977500", "154110.467500", "154111.957500", "154113.447500", "154114.937500", "154116.427500", "154117.917500", "154119.407500", "154120.897500", "154122.387500", "154123.877500", "154125.367500", "154126.857500", "154128.347500", "154129.837500", "154131.327500", "154132.817500", "154134.307500", "154135.797500", "154137.287500", "154138.777500", "154140.267500", "154141.757500", "154143.247500", "154144.737500", "154146.227500", "154147.717500", "154149.207500", "154150.697500", "154152.187500", "154153.677500", "154155.167500", "154156.657500", "154158.147500", "154159.637500", "154201.127500", "154202.617500", "154204.107500", "154205.597500", "154207.087500", "154208.577500", "154210.067500", "154211.557500", "154213.047500", "154214.537500", "154216.027500", "154217.517500", "154219.007500", "154220.497500", "154221.987500", "154223.477500", "154224.967500", "154226.457500", "154227.947500", "154229.437500", "154230.927500", "154232.417500", "154233.907500", "154235.397500", "154236.887500", "154238.377500", "154239.867500", "154241.357500", "154242.847500", "154244.337500", "154245.827500", "154247.317500", "154248.807500", "154250.297500", "154251.787500", "154253.277500", "154254.767500", "154256.257500", "154257.747500"],
      "ContentTime": ["153212.926000", "153212.930000", "153212.933000", "153212.936000", "153212.938000", "153212.941000", "153212.944000", "153212.947000", "153212.950000", "153212.953000", "153212.956000", "153232.911000", "153232.914000", "153232.917000", "153232.920000", "153232.923000", "153232.926000", "153232.929000", "153232.932000", "153232.940000", "153232.943000", "153232.954000", "153232.957000", "153232.959000", "153232.962000", "153232.965000", "153232.968000", "153232.971000", "153232.974000", "153232.982000", "153232.985000", "153252.897000", "153252.900000", "153252.903000", "153252.906000", "153252.909000", "153252.912000", "153252.914000", "153252.917000", "153252.920000", "153252.923000", "153252.926000", "153252.929000", "153252.932000", "153252.935000", "153252.937000", "153252.940000", "153252.943000", "153252.946000", "153252.949000", "153252.952000", "153312.897000", "153312.900000", "153312.903000", "153312.906000", "153312.909000", "153312.911000", "153312.914000", "153312.917000", "153312.920000", "153312.923000", "153312.926000", "153312.929000", "153312.932000", "153312.935000", "153312.937000", "153312.940000", "153312.943000", "153312.946000", "153312.949000", "153312.952000", "153332.897000", "153332.900000", "153332.903000", "153332.906000", "153332.909000", "153332.911000", "153332.914000", "153332.917000", "153332.920000", "153332.923000", "153332.926000", "153332.929000", "153332.932000", "153332.935000", "153332.938000", "153332.940000", "153332.943000", "153332.946000", "153332.949000", "153332.952000", "153412.897000", "153412.900000", "153412.903000", "153412.906000", "153412.909000", "153412.912000", "153412.915000", "153412.917000", "153412.920000", "153412.923000", "153412.926000", "153412.929000", "153412.932000", "153412.935000", "153412.938000", "153412.941000", "153412.943000", "153412.946000", "153412.949000", "153412.952000", "153412.955000", "153412.958000", "153412.961000", "153412.964000", "153412.967000", "153412.970000", "153412.973000", "153412.975000", "153412.978000", "153412.981000", "153412.984000", "153412.987000", "153452.897000", "153452.900000", "153452.903000", "153452.906000", "153452.909000", "153452.912000", "153452.915000", "153452.917000", "153452.920000", "153452.923000", "153452.926000", "153452.929000", "153452.932000", "153452.935000", "153452.938000", "153452.941000", "153452.943000", "153452.946000", "153452.949000", "153452.952000", "153452.955000", "153452.958000", "153452.961000", "153452.964000", "153452.967000", "153452.970000", "153452.973000", "153532.897000", "153532.900000", "153532.903000", "153532.906000", "153532.909000", "153532.912000", "153532.915000", "153532.918000", "153532.921000", "153532.924000", "153532.927000", "153532.930000", "153532.932000", "153532.935000", "153532.947000", "153532.950000", "153532.953000", "153532.956000", "153532.959000", "153532.962000", "153532.965000", "153532.968000", "153532.971000", "153532.974000", "153532.977000", "153532.980000", "153532.982000", "153612.897000", "153612.900000", "153612.903000", "153612.906000", "153612.909000", "153612.912000", "153612.915000", "153612.919000", "153612.921000", "153612.924000", "153612.927000", "153612.930000", "153612.933000", "153612.936000", "153612.939000", "153612.942000", "153612.945000", "153612.948000", "153612.951000", "153612.954000", "153612.957000", "153612.959000", "153612.962000", "153612.965000", "153612.968000", "153612.971000", "153652.897000", "153652.900000", "153652.903000", "153652.906000", "153652.909000", "153652.924000", "153652.927000", "153652.930000", "153652.933000", "153652.936000", "153652.939000", "153652.942000", "153652.945000", "153652.948000", "153652.951000", "153652.953000", "153652.956000", "153652.959000", "153652.962000", "153652.965000", "153652.968000", "153652.971000", "153652.974000", "153652.977000", "153652.980000", "153652.983000", "153652.993000", "153732.897000", "153732.900000", "153732.903000", "153732.906000", "153732.909000", "153732.912000", "153732.915000", "153732.917000", "153732.920000", "153732.923000", "153732.926000", "153732.929000", "153732.932000", "153732.935000", "153732.938000", "153732.941000", "153732.944000", "153732.947000", "153732.950000", "153732.953000", "153732.956000", "153732.959000", "153732.962000", "153732.965000", "153732.967000", "153732.970000", "153732.973000", "153812.897000", "153812.900000", "153812.903000", "153812.906000", "153812.909000", "153812.912000", "153812.915000", "153812.918000", "153812.921000", "153812.924000", "153812.927000", "153812.929000", "153812.932000", "153812.935000", "153812.938000", "153812.941000", "153812.944000", "153812.947000", "153812.950000", "153812.953000", "153812.956000", "153812.959000", "153812.962000", "153812.965000", "153812.967000", "153812.970000", "153812.973000", "153852.897000", "153852.900000", "153852.903000", "153852.906000", "153852.909000", "153852.912000", "153852.915000", "153852.918000", "153852.921000", "153852.924000", "153852.926000", "153852.929000", "153852.932000", "153852.935000", "153852.938000", "153852.941000", "153852.944000", "153852.947000", "153852.950000", "153852.953000", "153852.956000", "153852.959000", "153852.961000", "153852.964000", "153852.967000", "153852.970000", "153852.973000", "153932.897000", "153932.900000", "153932.903000", "153932.906000", "153932.909000", "153932.912000", "153932.915000", "153932.918000", "153932.921000", "153932.924000", "153932.927000", "153932.929000", "153932.932000", "153932.935000", "153932.938000", "153932.941000", "153932.944000", "153932.947000", "153932.950000", "153932.953000", "153932.956000", "153932.959000", "153932.962000", "153932.964000", "153932.967000", "153932.970000", "153932.973000", "154012.897000", "154012.900000", "154012.903000", "154012.906000", "154012.909000", "154012.912000", "154012.915000", "154012.918000", "154012.921000", "154012.924000", "154012.927000", "154012.930000", "154012.934000", "154012.937000", "154012.940000", "154012.944000", "154012.947000", "154012.950000", "154012.953000", "154012.955000", "154012.959000", "154012.961000", "154012.964000", "154012.967000", "154012.970000", "154012.973000", "154052.896000", "154052.899000", "154052.902000", "154052.905000", "154052.908000", "154052.911000", "154052.914000", "154052.917000", "154052.920000", "154052.923000", "154052.926000", "154052.928000", "154052.931000", "154052.934000", "154052.937000", "154052.940000", "154052.943000", "154052.946000", "154052.949000", "154052.952000", "154052.955000", "154052.958000", "154052.961000", "154052.964000", "154052.966000", "154052.969000", "154052.972000", "154132.907000", "154132.911000", "154132.914000", "154132.917000", "154132.920000", "154132.922000", "154132.925000", "154132.928000", "154132.939000", "154132.941000", "154132.944000", "154132.947000", "154132.950000", "154132.953000", "154132.956000", "154132.959000", "154132.962000", "154132.965000", "154132.968000", "154132.971000", "154132.974000", "154132.977000", "154132.980000", "154132.983000", "154132.986000", "154132.989000", "154132.992000", "154212.897000", "154212.900000", "154212.903000", "154212.906000", "154212.909000", "154212.912000", "154212.915000", "154212.918000", "154212.921000", "154212.924000", "154212.927000", "154212.930000", "154212.933000", "154212.935000", "154212.938000", "154212.941000", "154212.944000", "154212.947000", "154212.950000", "154212.953000", "154212.956000", "154212.959000", "154212.962000", "154212.965000", "154212.968000", "154212.971000", "154212.974000", "154252.897000", "154252.900000", "154252.903000", "154252.906000", "154252.909000", "154252.912000", "154252.915000", "154252.918000", "154252.921000", "154252.923000", "154252.926000", "154252.929000", "154252.932000", "154252.935000", "154252.938000", "154252.941000", "154252.944000", "154252.947000", "154252.950000", "154252.953000", "154252.956000", "154252.959000", "154252.970000", "154252.973000", "154252.976000", "154252.979000", "154252.982000", "154300.243000", "154300.247000", "154300.250000", "154300.254000", "154300.257000"],
