{
  "AcquisitionMatrixPE": 104,
  "AcquisitionNumber": 1,
  "AcquisitionTime": "15:56:56.500000",
  "BandwidthPerPixelPhaseEncode": 17.17,
  "BaseResolution": 104,
  "BodyPartExamined": "BRAIN",
  "CoilString": "HC1-7;NC1_2",
  "ConsistencyInfo": "N4_VE11C_LATEST_20160120",
  "ConversionSoftware": "dcm2niix",
  "ConversionSoftwareVersion": "v1.0.20190902",
  "DerivedVendorReportedEchoSpacing": 0.000560011,
  "DeviceSerialNumber": "167006",
  "DwellTime": 2.1e-06,
  "EchoTime": 0.037,
  "EchoTrainLength": 104,
  "EffectiveEchoSpacing": 0.000560011,
  "FlipAngle": 52,
  "ImageComments": "Unaliased_MB4_PE3_LB",
  "ImageOrientationPatientDICOM": [0.999556, -0.0262214, 0.0141591, 0.0296661, 0.920576, -0.389435],
  "ImageType": [
    "ORIGINAL",
    "PRIMARY",
    "M",
    "MB",
    "ND",
    "MOSAIC"
],
  "ImagingFrequency": 123.259,
  "InPlanePhaseEncodingDirectionDICOM": "COL",
  "InstitutionAddress": "Chemin_Queen-Mary_4565_Montreal_District_CA_H3W_1W5",
  "InstitutionName": "IUGM",
  "InstitutionalDepartmentName": "Department",
  "MRAcquisitionType": "2D",
  "MagneticFieldStrength": 3,
  "Manufacturer": "Siemens",
  "ManufacturersModelName": "Prisma_fit",
  "Modality": "MR",
  "MultibandAccelerationFactor": 4,
  "PartialFourier": 1,
  "PatientPosition": "HFS",
  "PercentPhaseFOV": 100,
  "PhaseEncodingDirection": "j",
  "PhaseEncodingSteps": 104,
  "PhaseResolution": 1,
  "PixelBandwidth": 2290,
  "ProcedureStepDescription": "games_shinobi",
  "ProtocolName": "func_task-shinobi_run-3",
  "PulseSequenceDetails": "%CustomerSeq%_cmrr_mbep2d_bold",
  "ReceiveCoilActiveElements": "HC1-7;NC1,2",
  "ReceiveCoilName": "HeadNeck_64",
  "ReconMatrixPE": 104,
  "RepetitionTime": 1.49,
  "SAR": 0.0303228,
  "ScanOptions": "FS",
  "ScanningSequence": "EP",
  "SequenceName": "epfid2d1_104",
  "SequenceVariant": "SK_SS",
  "SeriesDescription": "func_task-shinobi_run-3",
  "SeriesNumber": 15,
  "ShimSetting": [639, -7244, -8883, 576, 37, -240, -99, 0],
  "SliceThickness": 2,
  "SliceTiming": [0, 0.785, 0.0975, 0.8825, 0.195, 0.98, 0.295, 1.0775, 0.3925, 1.175, 0.49, 1.275, 0.5875, 1.3725, 0.685, 0, 0.785, 0.0975, 0.8825, 0.195, 0.98, 0.295, 1.0775, 0.3925, 1.175, 0.49, 1.275, 0.5875, 1.3725, 0.685, 0, 0.785, 0.0975, 0.8825, 0.195, 0.98, 0.295, 1.0775, 0.3925, 1.175, 0.49, 1.275, 0.5875, 1.3725, 0.685, 0, 0.785, 0.0975, 0.8825, 0.195, 0.98, 0.295, 1.0775, 0.3925, 1.175, 0.49, 1.275, 0.5875, 1.3725, 0.685],
  "SoftwareVersions": "syngo_MR_E11",
  "SpacingBetweenSlices": 2,
  "StationName": "MRC35049",
  "TaskName": "shinobi",
  "TotalReadoutTime": 0.0576811,
  "TxRefAmp": 220.513,
  "WipMemBlock": "4a2cb49c-2510-4fa7-80a0-d8def7675d9c||Sequence: R016 ve11c/master r/e634e98; Dec 19 2017 11:00:25 by eja",
  "dcmmeta_affine": [
    [-1.9991117715835571, 0.05933212861418724, 0.005646075587719679, 103.88074493408203],
    [0.05244285985827446, 1.841152310371399, -0.7793638110160828, -63.748111724853516],
    [0.028318297117948532, 0.77886962890625, 1.8418904542922974, -84.5252685546875],
    [0.0, 0.0, 0.0, 1.0]
],
  "dcmmeta_reorient_transform": [
    [0.0, -1.0, 0.0, 103.0],
    [1.0, 0.0, 0.0, 0.0],
    [0.0, 0.0, 1.0, 0.0],
    [0.0, 0.0, 0.0, 1.0]
],
  "dcmmeta_shape": [104, 104, 60, 488],
  "dcmmeta_slice_dim": 2,
  "dcmmeta_version": 0.6,
  "global": {
    "const": {
      "AcquisitionMatrix": [104, 0, 0, 104],
      "AngioFlag": "N",
      "BitsAllocated": 16,
      "BitsStored": 16,
      "BodyPartExamined": "BRAIN",
      "Columns": 832,
      "EchoNumbers": 1,
      "EchoTime": 37.0,
      "EchoTrainLength": 104,
      "FlipAngle": 52.0,
      "HighBit": 15,
      "ImageOrientationPatient": [0.99955587893896, -0.026221429751, 0.01415914899943, 0.02966606371959, 0.92057615712427, -0.3894348001883],
      "ImagePositionPatient": [-859.26552642246, -776.98081872145, 268.89897756184],
      "ImageType": [
        "ORIGINAL",
        "PRIMARY",
        "M",
        "MB",
        "ND",
        "MOSAIC"
],
      "ImagedNucleus": "1H",
      "ImagingFrequency": 123.259064,
      "InPlanePhaseEncodingDirection": "COL",
      "MRAcquisitionType": "2D",
      "MagneticFieldStrength": 3.0,
      "Manufacturer": "SIEMENS",
      "ManufacturerModelName": "Prisma_fit",
      "Modality": "MR",
      "NumberOfAverages": 1.0,
      "NumberOfPhaseEncodingSteps": 104,
      "PercentPhaseFieldOfView": 100.0,
      "PercentSampling": 100.0,
      "PerformedProcedureStepStartTime": "134348.280000",
      "PhotometricInterpretation": "MONOCHROME2",
      "PixelBandwidth": 2290.0,
      "PixelRepresentation": 0,
      "PixelSpacing": [2.0, 2.0],
      "ProtocolName": "func_task-shinobi_run-3",
      "RepetitionTime": 1490.0,
      "Rows": 832,
      "SAR": 0.0303228433033,
      "SamplesPerPixel": 1,
      "ScanOptions": "FS",
      "ScanningSequence": "EP",
      "SequenceName": "epfid2d1_104",
      "SequenceVariant": [
        "SK",
        "SS"
],
      "SeriesDescription": "func_task-shinobi_run-3",
      "SeriesNumber": 15,
      "SeriesTime": "155809.552000",
      "SliceLocation": -52.708393382257,
      "SliceThickness": 2.0,
      "SmallestImagePixelValue": 0,
      "SoftwareVersions": "syngo MR E11",
      "SpacingBetweenSlices": 2.0000000412299,
      "SpecificCharacterSet": "ISO_IR 100",
      "StudyID": "1",
      "StudyTime": "134348.198000",
      "TransmitCoilName": "Body",
      "VariableFlipAngleFlag": "N",
      "WindowCenterWidthExplanation": "Algo1",
      "dBdt": 0.0},
    "slices": {}
  },
  "time": {
    "samples": {
      "AcquisitionNumber": [1, 2, 3, 4, 5, 6, 7, 8, 9, 10, 11, 12, 13, 14, 15, 16, 17, 18, 19, 20, 21, 22, 23, 24, 25, 26, 27, 28, 29, 30, 31, 32, 33, 34, 35, 36, 37, 38, 39, 40, 41, 42, 43, 44, 45, 46, 47, 48, 49, 50, 51, 52, 53, 54, 55, 56, 57, 58, 59, 60, 61, 62, 63, 64, 65, 66, 67, 68, 69, 70, 71, 72, 73, 74, 75, 76, 77, 78, 79, 80, 81, 82, 83, 84, 85, 86, 87, 88, 89, 90, 91, 92, 93, 94, 95, 96, 97, 98, 99, 100, 101, 102, 103, 104, 105, 106, 107, 108, 109, 110, 111, 112, 113, 114, 115, 116, 117, 118, 119, 120, 121, 122, 123, 124, 125, 126, 127, 128, 129, 130, 131, 132, 133, 134, 135, 136, 137, 138, 139, 140, 141, 142, 143, 144, 145, 146, 147, 148, 149, 150, 151, 152, 153, 154, 155, 156, 157, 158, 159, 160, 161, 162, 163, 164, 165, 166, 167, 168, 169, 170, 171, 172, 173, 174, 175, 176, 177, 178, 179, 180, 181, 182, 183, 184, 185, 186, 187, 188, 189, 190, 191, 192, 193, 194, 195, 196, 197, 198, 199, 200, 201, 202, 203, 204, 205, 206, 207, 208, 209, 210, 211, 212, 213, 214, 215, 216, 217, 218, 219, 220, 221, 222, 223, 224, 225, 226, 227, 228, 229, 230, 231, 232, 233, 234, 235, 236, 237, 238, 239, 240, 241, 242, 243, 244, 245, 246, 247, 248, 249, 250, 251, 252, 253, 254, 255, 256, 257, 258, 259, 260, 261, 262, 263, 264, 265, 266, 267, 268, 269, 270, 271, 272, 273, 274, 275, 276, 277, 278, 279, 280, 281, 282, 283, 284, 285, 286, 287, 288, 289, 290, 291, 292, 293, 294, 295, 296, 297, 298, 299, 300, 301, 302, 303, 304, 305, 306, 307, 308, 309, 310, 311, 312, 313, 314, 315, 316, 317, 318, 319, 320, 321, 322, 323, 324, 325, 326, 327, 328, 329, 330, 331, 332, 333, 334, 335, 336, 337, 338, 339, 340, 341, 342, 343, 344, 345, 346, 347, 348, 349, 350, 351, 352, 353, 354, 355, 356, 357, 358, 359, 360, 361, 362, 363, 364, 365, 366, 367, 368, 369, 370, 371, 372, 373, 374, 375, 376, 377, 378, 379, 380, 381, 382, 383, 384, 385, 386, 387, 388, 389, 390, 391, 392, 393, 394, 395, 396, 397, 398, 399, 400, 401, 402, 403, 404, 405, 406, 407, 408, 409, 410, 411, 412, 413, 414, 415, 416, 417, 418, 419, 420, 421, 422, 423, 424, 425, 426, 427, 428, 429, 430, 431, 432, 433, 434, 435, 436, 437, 438, 439, 440, 441, 442, 443, 444, 445, 446, 447, 448, 449, 450, 451, 452, 453, 454, 455, 456, 457, 458, 459, 460, 461, 462, 463, 464, 465, 466, 467, 468, 469, 470, 471, 472, 473, 474, 475, 476, 477, 478, 479, 480, 481, 482, 483, 484, 485, 486, 487, 488],
      "AcquisitionTime": ["155656.500000", "155657.990000", "155659.480000", "155700.970000", "155702.460000", "155703.950000", "155705.440000", "155706.930000", "155708.420000", "155709.910000", "155711.400000", "155712.890000", "155714.380000", "155715.870000", "155717.360000", "155718.850000", "155720.340000", "155721.830000", "155723.320000", "155724.810000", "155726.300000", "155727.790000", "155729.280000", "155730.770000", "155732.260000", "155733.750000", "155735.240000", "155736.730000", "155738.220000", "155739.710000", "155741.200000", "155742.690000", "155744.180000", "155745.670000", "155747.160000", "155748.650000", "155750.140000", "155751.630000", "155753.120000", "155754.610000", "155756.100000", "155757.590000", "155759.080000", "155800.570000", "155802.060000", "155803.550000", "155805.040000", "155806.530000", "155808.020000", "155809.510000", "155811.000000", "155812.490000", "155813.980000", "155815.470000", "155816.960000", "155818.450000", "155819.940000", "155821.430000", "155822.920000", "155824.410000", "155825.900000", "155827.390000", "155828.880000", "155830.370000", "155831.860000", "155833.350000", "155834.840000", "155836.330000", "155837.820000", "155839.310000", "155840.800000", "155842.290000", "155843.780000", "155845.270000", "155846.760000", "155848.250000", "155849.740000", "155851.230000", "155852.720000", "155854.210000", "155855.700000", "155857.190000", "155858.680000", "155900.170000", "155901.660000", "155903.150000", "155904.640000", "155906.130000", "155907.620000", "155909.110000", "155910.600000", "155912.090000", "155913.580000", "155915.070000", "155916.560000", "155918.050000", "155919.540000", "155921.030000", "155922.520000", "155924.010000", "155925.500000", "155926.990000", "155928.480000", "155929.970000", "155931.460000", "155932.950000", "155934.440000", "155935.930000", "155937.420000", "155938.910000", "155940.400000", "155941.890000", "155943.380000", "155944.870000", "155946.360000", "155947.850000", "155949.340000", "155950.830000", "155952.320000", "155953.810000", "155955.300000", "155956.790000", "155958.280000", "155959.770000", "160001.260000", "160002.750000", "160004.240000", "160005.730000", "160007.220000", "160008.710000", "160010.200000", "160011.690000", "160013.180000", "160014.670000", "160016.160000", "160017.650000", "160019.140000", "160020.630000", "160022.120000", "160023.610000", "160025.100000", "160026.590000", "160028.080000", "160029.570000", "160031.060000", "160032.550000", "160034.040000", "160035.530000", "160037.020000", "160038.510000", "160040.000000", "160041.490000", "160042.980000", "160044.470000", "160045.960000", "160047.450000", "160048.940000", "160050.430000", "160051.920000", "160053.410000", "160054.900000", "160056.390000", "160057.880000", "160059.370000", "160100.860000", "160102.350000", "160103.840000", "160105.330000", "160106.820000", "160108.310000", "160109.800000", "160111.290000", "160112.780000", "160114.270000", "160115.760000", "160117.250000", "160118.740000", "160120.230000", "160121.720000", "160123.210000", "160124.700000", "160126.190000", "160127.680000", "160129.170000", "160130.660000", "160132.150000", "160133.640000", "160135.130000", "160136.620000", "160138.110000", "160139.600000", "160141.090000", "160142.580000", "160144.070000", "160145.560000", "160147.050000", "160148.540000", "160150.030000", "160151.520000", "160153.010000", "160154.500000", "160155.990000", "160157.480000", "160158.970000", "160200.460000", "160201.950000", "160203.440000", "160204.930000", "160206.420000", "160207.910000", "160209.400000", "160210.890000", "160212.380000", "160213.870000", "160215.360000", "160216.850000", "160218.340000", "160219.830000", "160221.320000", "160222.810000", "160224.300000", "160225.790000", "160227.280000", "160228.770000", "160230.260000", "160231.750000", "160233.240000", "160234.730000", "160236.220000", "160237.710000", "160239.200000", "160240.690000", "160242.180000", "160243.670000", "160245.160000", "160246.650000", "160248.140000", "160249.630000", "160251.120000", "160252.610000", "160254.100000", "160255.590000", "160257.080000", "160258.570000", "160300.060000", "160301.550000", "160303.040000", "160304.530000", "160306.020000", "160307.510000", "160309.000000", "160310.490000", "160311.980000", "160313.470000", "160314.960000", "160316.450000", "160317.940000", "160319.430000", "160320.920000", "160322.410000", "160323.900000", "160325.390000", "160326.880000", "160328.370000", "160329.860000", "160331.350000", "160332.840000", "160334.330000", "160335.820000", "160337.310000", "160338.800000", "160340.290000", "160341.780000", "160343.270000", "160344.760000", "160346.250000", "160347.740000", "160349.230000", "160350.720000", "160352.210000", "160353.700000", "160355.190000", "160356.680000", "160358.170000", "160359.660000", "160401.150000", "160402.640000", "160404.130000", "160405.620000", "160407.110000", "160408.600000", "160410.090000", "160411.580000", "160413.070000", "160414.560000", "160416.050000", "160417.540000", "160419.030000", "160420.520000", "160422.010000", "160423.500000", "160424.990000", "160426.480000", "160427.970000", "160429.460000", "160430.950000", "160432.440000", "160433.930000", "160435.420000", "160436.910000", "160438.400000", "160439.890000", "160441.380000", "160442.870000", "160444.360000", "160445.850000", "160447.340000", "160448.830000", "160450.320000", "160451.810000", "160453.300000", "160454.790000", "160456.280000", "160457.770000", "160459.260000", "160500.750000", "160502.240000", "160503.730000", "160505.220000", "160506.710000", "160508.200000", "160509.690000", "160511.180000", "160512.670000", "160514.160000", "160515.650000", "160517.140000", "160518.630000", "160520.120000", "160521.610000", "160523.100000", "160524.590000", "160526.080000", "160527.570000", "160529.060000", "160530.550000", "160532.040000", "160533.530000", "160535.020000", "160536.510000", "160538.000000", "160539.490000", "160540.980000", "160542.470000", "160543.960000", "160545.450000", "160546.940000", "160548.430000", "160549.920000", "160551.410000", "160552.900000", "160554.390000", "160555.880000", "160557.370000", "160558.860000", "160600.350000", "160601.840000", "160603.330000", "160604.820000", "160606.310000", "160607.800000", "160609.290000", "160610.780000", "160612.270000", "160613.760000", "160615.250000", "160616.740000", "160618.230000", "160619.720000", "160621.210000", "160622.700000", "160624.190000", "160625.680000", "160627.170000", "160628.660000", "160630.150000", "160631.640000", "160633.130000", "160634.620000", "160636.110000", "160637.600000", "160639.090000", "160640.580000", "160642.070000", "160643.560000", "160645.050000", "160646.540000", "160648.030000", "160649.520000", "160651.010000", "160652.500000", "160653.990000", "160655.480000", "160656.970000", "160658.460000", "160659.950000", "160701.440000", "160702.930000", "160704.420000", "160705.910000", "160707.400000", "160708.890000", "160710.380000", "160711.870000", "160713.360000", "160714.850000", "160716.340000", "160717.830000", "160719.320000", "160720.810000", "160722.300000", "160723.790000", "160725.280000", "160726.770000", "160728.260000", "160729.750000", "160731.240000", "160732.730000", "160734.220000", "160735.710000", "160737.200000", "160738.690000", "160740.180000", "160741.670000", "160743.160000", "160744.650000", "160746.140000", "160747.630000", "160749.120000", "160750.610000", "160752.100000", "160753.590000", "160755.080000", "160756.570000", "160758.060000", "160759.550000", "160801.040000", "160802.530000", "160804.020000", "160805.510000", "160807.000000", "160808.490000", "160809.980000", "160811.470000", "160812.960000", "160814.450000", "160815.940000", "160817.430000", "160818.920000", "160820.410000", "160821.900000", "160823.390000", "160824.880000", "160826.370000", "160827.860000", "160829.350000", "160830.840000", "160832.330000", "160833.820000", "160835.310000", "160836.800000", "160838.290000", "160839.780000", "160841.270000", "160842.760000", "160844.250000", "160845.740000", "160847.230000", "160848.720000", "160850.210000", "160851.700000", "160853.190000", "160854.680000", "160856.170000", "160857.660000", "160859.150000", "160900.640000", "160902.130000"],
      "ContentTime": ["155809.555000", "155809.559000", "155809.562000", "155809.565000", "155809.568000", "155809.571000", "155809.573000", "155809.576000", "155809.584000", "155809.587000", "155809.590000", "155809.593000", "155809.595000", "155809.598000", "155809.601000", "155809.605000", "155809.608000", "155809.611000", "155809.614000", "155809.617000", "155829.515000", "155829.518000", "155829.521000", "155829.524000", "155829.527000", "155829.529000", "155829.532000", "155829.535000", "155829.538000", "155829.541000", "155829.544000", "155829.547000", "155829.550000", "155829.553000", "155829.555000", "155829.558000", "155829.561000", "155829.564000", "155829.567000", "155829.570000", "155849.515000", "155849.518000", "155849.521000", "155849.524000", "155849.527000", "155849.529000", "155849.532000", "155849.535000", "155849.538000", "155849.541000", "155849.544000", "155849.547000", "155849.550000", "155849.552000", "155849.555000", "155849.558000", "155849.561000", "155849.564000", "155849.573000", "155849.576000", "155909.515000", "155909.518000", "155909.521000", "155909.524000", "155909.527000", "155909.530000", "155909.532000", "155909.535000", "155909.538000", "155909.541000", "155909.544000", "155909.547000", "155909.550000", "155909.552000", "155909.555000", "155909.558000", "155909.561000", "155909.564000", "155909.567000", "155909.570000", "155909.573000", "155929.515000", "155929.518000", "155929.521000", "155929.524000", "155929.527000", "155929.530000", "155929.532000", "155929.535000", "155929.538000", "155929.541000", "155929.544000", "155929.547000", "155929.550000", "155929.571000", "155929.574000", "155929.577000", "155929.579000", "155929.582000", "155929.585000", "155929.588000", "160009.515000", "160009.518000", "160009.521000", "160009.524000", "160009.527000", "160009.530000", "160009.533000", "160009.536000", "160009.538000", "160009.541000", "160009.544000", "160009.547000", "160009.550000", "160009.553000", "160009.556000", "160009.573000", "160009.576000", "160009.579000", "160009.582000", "160009.585000", "160009.588000", "160009.591000", "160009.594000", "160009.597000", "160009.604000", "160009.607000", "160009.610000", "160049.515000", "160049.518000", "160049.521000", "160049.524000", "160049.527000", "160049.530000", "160049.533000", "160049.536000", "160049.539000", "160049.541000", "160049.544000", "160049.547000", "160049.550000", "160049.553000", "160049.556000", "160049.559000", "160049.562000", "160049.565000", "160049.568000", "160049.571000", "160049.573000", "160049.576000", "160049.579000", "160049.582000", "160049.585000", "160049.588000", "160049.591000", "160129.515000", "160129.518000", "160129.521000", "160129.524000", "160129.527000", "160129.530000", "160129.533000", "160129.536000", "160129.539000", "160129.541000", "160129.544000", "160129.547000", "160129.550000", "160129.553000", "160129.556000", "160129.559000", "160129.562000", "160129.573000", "160129.575000", "160129.578000", "160129.581000", "160129.584000", "160129.587000", "160129.590000", "160129.593000", "160129.596000", "160129.599000", "160209.515000", "160209.518000", "160209.521000", "160209.524000", "160209.527000", "160209.530000", "160209.533000", "160209.535000", "160209.538000", "160209.541000", "160209.544000", "160209.547000", "160209.550000", "160209.553000", "160209.556000", "160209.559000", "160209.562000", "160209.565000", "160209.568000", "160209.571000", "160209.573000", "160209.576000", "160209.579000", "160209.582000", "160209.585000", "160209.588000", "160209.591000", "160249.515000", "160249.518000", "160249.521000", "160249.524000", "160249.527000", "160249.530000", "160249.533000", "160249.536000", "160249.539000", "160249.541000", "160249.544000", "160249.547000", "160249.550000", "160249.553000", "160249.556000", "160249.559000", "160249.562000", "160249.565000", "160249.568000", "160249.571000", "160249.574000", "160249.577000", "160249.580000", "160249.583000", "160249.586000", "160249.588000", "160249.591000", "160329.515000", "160329.518000", "160329.521000", "160329.524000", "160329.527000", "160329.530000", "160329.533000", "160329.536000", "160329.538000", "160329.541000", "160329.544000", "160329.547000", "160329.550000", "160329.553000", "160329.556000", "160329.559000", "160329.562000", "160329.565000", "160329.568000", "160329.571000", "160329.574000", "160329.576000", "160329.579000", "160329.582000", "160329.585000", "160329.588000", "160329.591000", "160409.515000", "160409.518000", "160409.521000", "160409.524000", "160409.527000", "160409.530000", "160409.533000", "160409.536000", "160409.539000", "160409.541000", "160409.544000", "160409.547000", "160409.550000", "160409.553000", "160409.556000", "160409.559000", "160409.562000", "160409.565000", "160409.568000", "160409.571000", "160409.574000", "160409.576000", "160409.579000", "160409.582000", "160409.585000", "160409.588000", "160409.591000", "160449.515000", "160449.518000", "160449.521000", "160449.524000", "160449.527000", "160449.530000", "160449.533000", "160449.536000", "160449.538000", "160449.541000", "160449.556000", "160449.559000", "160449.562000", "160449.565000", "160449.568000", "160449.571000", "160449.574000", "160449.577000", "160449.580000", "160449.582000", "160449.585000", "160449.588000", "160449.591000", "160449.594000", "160449.597000", "160449.600000", "160529.515000", "160529.518000", "160529.521000", "160529.524000", "160529.527000", "160529.530000", "160529.533000", "160529.536000", "160529.539000", "160529.542000", "160529.545000", "160529.548000", "160529.550000", "160529.553000", "160529.556000", "160529.559000", "160529.562000", "160529.565000", "160529.568000", "160529.571000", "160529.574000", "160529.577000", "160529.580000", "160529.583000", "160529.585000", "160529.588000", "160529.591000", "160609.515000", "160609.518000", "160609.521000", "160609.524000", "160609.527000", "160609.530000", "160609.533000", "160609.536000", "160609.539000", "160609.542000", "160609.544000", "160609.547000", "160609.550000", "160609.553000", "160609.556000", "160609.559000", "160609.562000", "160609.565000", "160609.568000", "160609.571000", "160609.574000", "160609.577000", "160609.580000", "160609.583000", "160609.586000", "160609.589000", "160609.592000", "160649.515000", "160649.518000", "160649.521000", "160649.524000", "160649.527000", "160649.530000", "160649.533000", "160649.536000", "160649.539000", "160649.541000", "160649.544000", "160649.547000", "160649.550000", "160649.553000", "160649.556000", "160649.559000", "160649.562000", "160649.565000", "160649.568000", "160649.571000", "160649.574000", "160649.577000", "160649.580000", "160649.582000", "160649.585000", "160649.588000", "160649.591000", "160729.515000", "160729.518000", "160729.521000", "160729.524000", "160729.527000", "160729.530000", "160729.533000", "160729.536000", "160729.539000", "160729.541000", "160729.544000", "160729.547000", "160729.550000", "160729.553000", "160729.556000", "160729.559000", "160729.562000", "160729.565000", "160729.568000", "160729.571000", "160729.573000", "160729.576000", "160729.579000", "160729.582000", "160729.585000", "160729.588000", "160729.591000", "160809.515000", "160809.518000", "160809.521000", "160809.524000", "160809.527000", "160809.530000", "160809.533000", "160809.536000", "160809.539000", "160809.542000", "160809.545000", "160809.548000", "160809.551000", "160809.554000", "160809.557000", "160809.560000", "160809.563000", "160809.566000", "160809.569000", "160809.572000", "160809.575000", "160809.578000", "160809.580000", "160809.583000", "160809.586000", "160809.589000", "160809.592000", "160849.515000", "160849.518000", "160849.521000", "160849.524000", "160849.527000", "160849.530000", "160849.533000", "160849.536000", "160849.539000", "160849.542000", "160849.544000", "160849.547000", "160849.550000", "160849.553000", "160849.556000", "160849.559000", "160849.562000", "160849.565000", "160849.569000", "160849.572000", "160849.576000", "160849.579000", "160849.582000", "160849.585000", "160849.588000", "160849.591000", "160905.388000", "160905.391000", "160905.394000", "160905.397000", "160905.400000", "160905.403000", "160905.419000", "160905.422000", "160905.425000", "160905.428000", "160905.430000"],
