{
  "AcquisitionMatrixPE": 104,
  "AcquisitionNumber": 1,
  "AcquisitionTime": "15:14:25.142500",
  "BandwidthPerPixelPhaseEncode": 17.17,
  "BaseResolution": 104,
  "BodyPartExamined": "BRAIN",
  "CoilString": "HC1-7;NC1_2",
  "ConsistencyInfo": "N4_VE11C_LATEST_20160120",
  "ConversionSoftware": "dcm2niix",
  "ConversionSoftwareVersion": "v1.0.20190902",
  "DerivedVendorReportedEchoSpacing": 0.000560011,
  "DeviceSerialNumber": "167006",
  "DwellTime": 2.1e-06,
  "EchoTime": 0.037,
  "EchoTrainLength": 104,
  "EffectiveEchoSpacing": 0.000560011,
  "FlipAngle": 52,
  "ImageComments": "Unaliased_MB4_PE3_LB",
  "ImageOrientationPatientDICOM": [0.998691, -0.0493779, 0.0133286, 0.050941, 0.93707, -0.345406],
  "ImageType": [
    "ORIGINAL",
    "PRIMARY",
    "M",
    "MB",
    "ND",
    "MOSAIC"
],
  "ImagingFrequency": 123.259,
  "InPlanePhaseEncodingDirectionDICOM": "COL",
  "InstitutionAddress": "Chemin_Queen-Mary_4565_Montreal_District_CA_H3W_1W5",
  "InstitutionName": "IUGM",
  "InstitutionalDepartmentName": "Department",
  "MRAcquisitionType": "2D",
  "MagneticFieldStrength": 3,
  "Manufacturer": "Siemens",
  "ManufacturersModelName": "Prisma_fit",
  "Modality": "MR",
  "MultibandAccelerationFactor": 4,
  "PartialFourier": 1,
  "PatientPosition": "HFS",
  "PercentPhaseFOV": 100,
  "PhaseEncodingDirection": "j",
  "PhaseEncodingSteps": 104,
  "PhaseResolution": 1,
  "PixelBandwidth": 2290,
  "ProcedureStepDescription": "games_shinobi",
  "ProtocolName": "func_task-shinobi_run-2",
  "PulseSequenceDetails": "%CustomerSeq%_cmrr_mbep2d_bold",
  "ReceiveCoilActiveElements": "HC1-7;NC1,2",
  "ReceiveCoilName": "HeadNeck_64",
  "ReconMatrixPE": 104,
  "RepetitionTime": 1.49,
  "SAR": 0.0295416,
  "ScanOptions": "FS",
  "ScanningSequence": "EP",
  "SequenceName": "epfid2d1_104",
  "SequenceVariant": "SK_SS",
  "SeriesDescription": "func_task-shinobi_run-2",
  "SeriesNumber": 11,
  "ShimSetting": [631, -7244, -8876, 659, 19, -216, -36, -16],
  "SliceThickness": 2,
  "SliceTiming": [0, 0.785, 0.0975, 0.8825, 0.195, 0.98, 0.295, 1.0775, 0.3925, 1.175, 0.49, 1.275, 0.5875, 1.3725, 0.685, 0, 0.785, 0.0975, 0.8825, 0.195, 0.98, 0.295, 1.0775, 0.3925, 1.175, 0.49, 1.275, 0.5875, 1.3725, 0.685, 0, 0.785, 0.0975, 0.8825, 0.195, 0.98, 0.295, 1.0775, 0.3925, 1.175, 0.49, 1.275, 0.5875, 1.3725, 0.685, 0, 0.785, 0.0975, 0.8825, 0.195, 0.98, 0.295, 1.0775, 0.3925, 1.175, 0.49, 1.275, 0.5875, 1.3725, 0.685],
  "SoftwareVersions": "syngo_MR_E11",
  "SpacingBetweenSlices": 2,
  "StationName": "MRC35049",
  "TaskName": "shinobi",
  "TotalReadoutTime": 0.0576811,
  "TxRefAmp": 219.157,
  "WipMemBlock": "59d89161-ee48-4246-bfbc-ba4179f0e8fb||Sequence: R016 ve11c/master r/e634e98; Dec 19 2017 11:00:25 by eja",
  "dcmmeta_affine": [
    [-1.997382402420044, 0.10188200324773788, -0.009131133556365967, 102.15742492675781],
    [0.09875582158565521, 1.874139666557312, -0.6912652850151062, -68.41297912597656],
    [0.026657236739993095, 0.6908114552497864, 1.8767175674438477, -80.35104370117188],
    [0.0, 0.0, 0.0, 1.0]
],
  "dcmmeta_reorient_transform": [
    [0.0, -1.0, 0.0, 103.0],
    [1.0, 0.0, 0.0, 0.0],
    [0.0, 0.0, 1.0, 0.0],
    [0.0, 0.0, 0.0, 1.0]
],
  "dcmmeta_shape": [104, 104, 60, 477],
  "dcmmeta_slice_dim": 2,
  "dcmmeta_version": 0.6,
  "global": {
    "const": {
      "AcquisitionMatrix": [104, 0, 0, 104],
      "AngioFlag": "N",
      "BitsAllocated": 16,
      "BitsStored": 16,
      "BodyPartExamined": "BRAIN",
      "Columns": 832,
      "EchoNumbers": 1,
      "EchoTime": 37.0,
      "EchoTrainLength": 104,
      "FlipAngle": 52.0,
      "HighBit": 15,
      "ImageOrientationPatient": [0.99869122851059, -0.0493779103606, 0.01332861824902, 0.05094100210736, 0.93706984662422, -0.3454057278795],
      "ImagePositionPatient": [-876.78353833126, -770.86313869472, 232.55466903701],
      "ImageType": [
        "ORIGINAL",
        "PRIMARY",
        "M",
        "MB",
        "ND",
        "MOSAIC"
],
      "ImagedNucleus": "1H",
      "ImagingFrequency": 123.259026,
      "InPlanePhaseEncodingDirection": "COL",
      "MRAcquisitionType": "2D",
      "MagneticFieldStrength": 3.0,
      "Manufacturer": "SIEMENS",
      "ManufacturerModelName": "Prisma_fit",
      "Modality": "MR",
      "NumberOfAverages": 1.0,
      "NumberOfPhaseEncodingSteps": 104,
      "PercentPhaseFieldOfView": 100.0,
      "PercentSampling": 100.0,
      "PerformedProcedureStepStartTime": "142229.619000",
      "PhotometricInterpretation": "MONOCHROME2",
      "PixelBandwidth": 2290.0,
      "PixelRepresentation": 0,
      "PixelSpacing": [2.0, 2.0],
      "ProtocolName": "func_task-shinobi_run-2",
      "RepetitionTime": 1490.0,
      "Rows": 832,
      "SAR": 0.0295416322423,
      "SamplesPerPixel": 1,
      "ScanOptions": "FS",
      "ScanningSequence": "EP",
      "SequenceName": "epfid2d1_104",
      "SequenceVariant": [
        "SK",
        "SS"
],
      "SeriesDescription": "func_task-shinobi_run-2",
      "SeriesNumber": 11,
      "SeriesTime": "151552.666000",
      "SliceLocation": -52.218759148117,
      "SliceThickness": 2.0,
      "SmallestImagePixelValue": 0,
      "SoftwareVersions": "syngo MR E11",
      "SpacingBetweenSlices": 1.9999999896949,
      "SpecificCharacterSet": "ISO_IR 100",
      "StudyID": "1",
      "StudyTime": "142229.531000",
      "TransmitCoilName": "Body",
      "VariableFlipAngleFlag": "N",
      "WindowCenterWidthExplanation": "Algo1",
      "dBdt": 0.0},
    "slices": {}
  },
  "time": {
    "samples": {
      "AcquisitionNumber": [1, 2, 3, 4, 5, 6, 7, 8, 9, 10, 11, 12, 13, 14, 15, 16, 17, 18, 19, 20, 21, 22, 23, 24, 25, 26, 27, 28, 29, 30, 31, 32, 33, 34, 35, 36, 37, 38, 39, 40, 41, 42, 43, 44, 45, 46, 47, 48, 49, 50, 51, 52, 53, 54, 55, 56, 57, 58, 59, 60, 61, 62, 63, 64, 65, 66, 67, 68, 69, 70, 71, 72, 73, 74, 75, 76, 77, 78, 79, 80, 81, 82, 83, 84, 85, 86, 87, 88, 89, 90, 91, 92, 93, 94, 95, 96, 97, 98, 99, 100, 101, 102, 103, 104, 105, 106, 107, 108, 109, 110, 111, 112, 113, 114, 115, 116, 117, 118, 119, 120, 121, 122, 123, 124, 125, 126, 127, 128, 129, 130, 131, 132, 133, 134, 135, 136, 137, 138, 139, 140, 141, 142, 143, 144, 145, 146, 147, 148, 149, 150, 151, 152, 153, 154, 155, 156, 157, 158, 159, 160, 161, 162, 163, 164, 165, 166, 167, 168, 169, 170, 171, 172, 173, 174, 175, 176, 177, 178, 179, 180, 181, 182, 183, 184, 185, 186, 187, 188, 189, 190, 191, 192, 193, 194, 195, 196, 197, 198, 199, 200, 201, 202, 203, 204, 205, 206, 207, 208, 209, 210, 211, 212, 213, 214, 215, 216, 217, 218, 219, 220, 221, 222, 223, 224, 225, 226, 227, 228, 229, 230, 231, 232, 233, 234, 235, 236, 237, 238, 239, 240, 241, 242, 243, 244, 245, 246, 247, 248, 249, 250, 251, 252, 253, 254, 255, 256, 257, 258, 259, 260, 261, 262, 263, 264, 265, 266, 267, 268, 269, 270, 271, 272, 273, 274, 275, 276, 277, 278, 279, 280, 281, 282, 283, 284, 285, 286, 287, 288, 289, 290, 291, 292, 293, 294, 295, 296, 297, 298, 299, 300, 301, 302, 303, 304, 305, 306, 307, 308, 309, 310, 311, 312, 313, 314, 315, 316, 317, 318, 319, 320, 321, 322, 323, 324, 325, 326, 327, 328, 329, 330, 331, 332, 333, 334, 335, 336, 337, 338, 339, 340, 341, 342, 343, 344, 345, 346, 347, 348, 349, 350, 351, 352, 353, 354, 355, 356, 357, 358, 359, 360, 361, 362, 363, 364, 365, 366, 367, 368, 369, 370, 371, 372, 373, 374, 375, 376, 377, 378, 379, 380, 381, 382, 383, 384, 385, 386, 387, 388, 389, 390, 391, 392, 393, 394, 395, 396, 397, 398, 399, 400, 401, 402, 403, 404, 405, 406, 407, 408, 409, 410, 411, 412, 413, 414, 415, 416, 417, 418, 419, 420, 421, 422, 423, 424, 425, 426, 427, 428, 429, 430, 431, 432, 433, 434, 435, 436, 437, 438, 439, 440, 441, 442, 443, 444, 445, 446, 447, 448, 449, 450, 451, 452, 453, 454, 455, 456, 457, 458, 459, 460, 461, 462, 463, 464, 465, 466, 467, 468, 469, 470, 471, 472, 473, 474, 475, 476, 477],
      "AcquisitionTime": ["151425.142500", "151426.632500", "151428.122500", "151429.612500", "151431.102500", "151432.592500", "151434.082500", "151435.572500", "151437.062500", "151438.552500", "151440.042500", "151441.532500", "151443.022500", "151444.512500", "151446.002500", "151447.492500", "151448.982500", "151450.472500", "151451.962500", "151453.452500", "151454.942500", "151456.432500", "151457.922500", "151459.412500", "151500.902500", "151502.392500", "151503.882500", "151505.372500", "151506.862500", "151508.352500", "151509.842500", "151511.332500", "151512.822500", "151514.312500", "151515.802500", "151517.292500", "151518.782500", "151520.272500", "151521.762500", "151523.252500", "151524.742500", "151526.232500", "151527.722500", "151529.212500", "151530.702500", "151532.192500", "151533.682500", "151535.172500", "151536.662500", "151538.152500", "151539.642500", "151541.132500", "151542.622500", "151544.112500", "151545.602500", "151547.092500", "151548.582500", "151550.072500", "151551.562500", "151553.052500", "151554.542500", "151556.032500", "151557.522500", "151559.012500", "151600.502500", "151601.992500", "151603.482500", "151604.972500", "151606.462500", "151607.952500", "151609.442500", "151610.932500", "151612.422500", "151613.912500", "151615.402500", "151616.892500", "151618.382500", "151619.872500", "151621.362500", "151622.852500", "151624.342500", "151625.832500", "151627.322500", "151628.812500", "151630.302500", "151631.792500", "151633.282500", "151634.772500", "151636.262500", "151637.752500", "151639.242500", "151640.732500", "151642.222500", "151643.712500", "151645.202500", "151646.692500", "151648.182500", "151649.672500", "151651.162500", "151652.652500", "151654.142500", "151655.632500", "151657.122500", "151658.612500", "151700.102500", "151701.592500", "151703.082500", "151704.572500", "151706.062500", "151707.552500", "151709.042500", "151710.532500", "151712.022500", "151713.512500", "151715.002500", "151716.492500", "151717.982500", "151719.472500", "151720.962500", "151722.452500", "151723.942500", "151725.432500", "151726.922500", "151728.412500", "151729.902500", "151731.392500", "151732.882500", "151734.372500", "151735.862500", "151737.352500", "151738.842500", "151740.332500", "151741.822500", "151743.312500", "151744.802500", "151746.292500", "151747.782500", "151749.272500", "151750.762500", "151752.252500", "151753.742500", "151755.232500", "151756.722500", "151758.212500", "151759.702500", "151801.192500", "151802.682500", "151804.172500", "151805.662500", "151807.152500", "151808.642500", "151810.132500", "151811.622500", "151813.112500", "151814.602500", "151816.092500", "151817.582500", "151819.072500", "151820.562500", "151822.052500", "151823.542500", "151825.032500", "151826.522500", "151828.012500", "151829.502500", "151830.992500", "151832.482500", "151833.972500", "151835.462500", "151836.952500", "151838.442500", "151839.932500", "151841.422500", "151842.912500", "151844.402500", "151845.892500", "151847.382500", "151848.872500", "151850.362500", "151851.852500", "151853.342500", "151854.832500", "151856.322500", "151857.812500", "151859.302500", "151900.792500", "151902.282500", "151903.772500", "151905.262500", "151906.752500", "151908.242500", "151909.732500", "151911.222500", "151912.712500", "151914.202500", "151915.692500", "151917.182500", "151918.672500", "151920.162500", "151921.652500", "151923.142500", "151924.632500", "151926.122500", "151927.612500", "151929.102500", "151930.592500", "151932.082500", "151933.572500", "151935.062500", "151936.552500", "151938.042500", "151939.532500", "151941.022500", "151942.512500", "151944.002500", "151945.492500", "151946.982500", "151948.472500", "151949.962500", "151951.452500", "151952.942500", "151954.432500", "151955.922500", "151957.412500", "151958.902500", "152000.392500", "152001.882500", "152003.372500", "152004.862500", "152006.352500", "152007.842500", "152009.332500", "152010.822500", "152012.312500", "152013.802500", "152015.292500", "152016.782500", "152018.272500", "152019.762500", "152021.252500", "152022.742500", "152024.232500", "152025.722500", "152027.212500", "152028.702500", "152030.192500", "152031.682500", "152033.172500", "152034.662500", "152036.152500", "152037.642500", "152039.132500", "152040.622500", "152042.112500", "152043.602500", "152045.092500", "152046.582500", "152048.072500", "152049.562500", "152051.052500", "152052.542500", "152054.032500", "152055.522500", "152057.012500", "152058.502500", "152059.992500", "152101.482500", "152102.972500", "152104.462500", "152105.952500", "152107.442500", "152108.932500", "152110.422500", "152111.912500", "152113.402500", "152114.892500", "152116.382500", "152117.872500", "152119.362500", "152120.852500", "152122.342500", "152123.832500", "152125.322500", "152126.812500", "152128.302500", "152129.792500", "152131.282500", "152132.772500", "152134.262500", "152135.752500", "152137.242500", "152138.732500", "152140.222500", "152141.712500", "152143.202500", "152144.692500", "152146.182500", "152147.672500", "152149.162500", "152150.652500", "152152.142500", "152153.632500", "152155.122500", "152156.612500", "152158.102500", "152159.592500", "152201.082500", "152202.572500", "152204.062500", "152205.552500", "152207.042500", "152208.532500", "152210.022500", "152211.512500", "152213.002500", "152214.492500", "152215.982500", "152217.472500", "152218.962500", "152220.452500", "152221.942500", "152223.432500", "152224.922500", "152226.412500", "152227.902500", "152229.392500", "152230.882500", "152232.372500", "152233.862500", "152235.352500", "152236.842500", "152238.332500", "152239.822500", "152241.312500", "152242.802500", "152244.292500", "152245.782500", "152247.272500", "152248.762500", "152250.252500", "152251.742500", "152253.232500", "152254.722500", "152256.212500", "152257.702500", "152259.192500", "152300.682500", "152302.172500", "152303.662500", "152305.152500", "152306.642500", "152308.132500", "152309.622500", "152311.112500", "152312.602500", "152314.092500", "152315.582500", "152317.072500", "152318.562500", "152320.052500", "152321.542500", "152323.032500", "152324.522500", "152326.012500", "152327.502500", "152328.992500", "152330.482500", "152331.972500", "152333.462500", "152334.952500", "152336.442500", "152337.932500", "152339.422500", "152340.912500", "152342.402500", "152343.892500", "152345.382500", "152346.872500", "152348.362500", "152349.852500", "152351.342500", "152352.832500", "152354.322500", "152355.812500", "152357.302500", "152358.792500", "152400.282500", "152401.772500", "152403.262500", "152404.752500", "152406.242500", "152407.732500", "152409.222500", "152410.712500", "152412.202500", "152413.692500", "152415.182500", "152416.672500", "152418.162500", "152419.652500", "152421.142500", "152422.632500", "152424.122500", "152425.612500", "152427.102500", "152428.592500", "152430.082500", "152431.572500", "152433.062500", "152434.552500", "152436.042500", "152437.532500", "152439.022500", "152440.512500", "152442.002500", "152443.492500", "152444.982500", "152446.472500", "152447.962500", "152449.452500", "152450.942500", "152452.432500", "152453.922500", "152455.412500", "152456.902500", "152458.392500", "152459.882500", "152501.372500", "152502.862500", "152504.352500", "152505.842500", "152507.332500", "152508.822500", "152510.312500", "152511.802500", "152513.292500", "152514.782500", "152516.272500", "152517.762500", "152519.252500", "152520.742500", "152522.232500", "152523.722500", "152525.212500", "152526.702500", "152528.192500", "152529.682500", "152531.172500", "152532.662500", "152534.152500", "152535.642500", "152537.132500", "152538.622500", "152540.112500", "152541.602500", "152543.092500", "152544.582500", "152546.072500", "152547.562500", "152549.052500", "152550.542500", "152552.032500", "152553.522500", "152555.012500", "152556.502500", "152557.992500", "152559.482500", "152600.972500", "152602.462500", "152603.952500", "152605.442500", "152606.932500", "152608.422500", "152609.912500", "152611.402500", "152612.892500", "152614.382500"],
      "ContentTime": ["151552.669000", "151552.677000", "151552.685000", "151552.688000", "151552.691000", "151552.694000", "151552.697000", "151552.699000", "151552.702000", "151552.705000", "151552.708000", "151552.711000", "151552.714000", "151552.716000", "151552.719000", "151552.722000", "151552.725000", "151552.728000", "151552.730000", "151552.733000", "151552.736000", "151552.739000", "151552.742000", "151552.750000", "151552.753000", "151552.755000", "151552.758000", "151612.637000", "151612.640000", "151612.643000", "151612.646000", "151612.648000", "151612.651000", "151612.665000", "151612.668000", "151612.670000", "151612.673000", "151612.676000", "151612.679000", "151612.697000", "151612.700000", "151612.703000", "151612.706000", "151612.708000", "151612.711000", "151612.714000", "151612.717000", "151632.636000", "151632.639000", "151632.642000", "151632.664000", "151632.666000", "151632.669000", "151632.672000", "151632.675000", "151632.678000", "151632.680000", "151632.683000", "151632.686000", "151632.689000", "151632.692000", "151632.695000", "151632.697000", "151632.700000", "151632.703000", "151632.706000", "151632.709000", "151632.711000", "151652.636000", "151652.639000", "151652.642000", "151652.644000", "151652.647000", "151652.650000", "151652.653000", "151652.656000", "151652.659000", "151652.662000", "151652.664000", "151652.674000", "151652.676000", "151652.679000", "151652.682000", "151652.685000", "151652.688000", "151652.690000", "151652.693000", "151652.696000", "151712.637000", "151712.640000", "151712.643000", "151712.646000", "151712.648000", "151712.651000", "151712.654000", "151712.657000", "151712.661000", "151712.664000", "151712.666000", "151712.669000", "151712.672000", "151712.675000", "151712.678000", "151712.681000", "151712.683000", "151712.686000", "151712.689000", "151712.692000", "151752.637000", "151752.640000", "151752.643000", "151752.646000", "151752.648000", "151752.651000", "151752.660000", "151752.663000", "151752.666000", "151752.669000", "151752.672000", "151752.675000", "151752.677000", "151752.680000", "151752.683000", "151752.686000", "151752.689000", "151752.691000", "151752.694000", "151752.697000", "151752.700000", "151752.703000", "151752.705000", "151752.708000", "151752.711000", "151752.714000", "151752.717000", "151752.720000", "151752.722000", "151752.725000", "151832.637000", "151832.640000", "151832.643000", "151832.646000", "151832.648000", "151832.651000", "151832.654000", "151832.657000", "151832.660000", "151832.663000", "151832.665000", "151832.668000", "151832.671000", "151832.674000", "151832.677000", "151832.680000", "151832.683000", "151832.686000", "151832.689000", "151832.691000", "151832.694000", "151832.697000", "151832.700000", "151832.703000", "151832.706000", "151832.708000", "151832.711000", "151912.636000", "151912.639000", "151912.642000", "151912.645000", "151912.647000", "151912.650000", "151912.653000", "151912.656000", "151912.659000", "151912.662000", "151912.665000", "151912.667000", "151912.670000", "151912.673000", "151912.676000", "151912.679000", "151912.682000", "151912.685000", "151912.687000", "151912.690000", "151912.693000", "151912.696000", "151912.699000", "151912.702000", "151912.704000", "151912.707000", "151912.710000", "151952.637000", "151952.640000", "151952.643000", "151952.646000", "151952.648000", "151952.651000", "151952.654000", "151952.657000", "151952.660000", "151952.663000", "151952.665000", "151952.668000", "151952.671000", "151952.674000", "151952.677000", "151952.680000", "151952.682000", "151952.685000", "151952.688000", "151952.691000", "151952.694000", "151952.697000", "151952.700000", "151952.702000", "151952.705000", "151952.708000", "151952.711000", "152032.637000", "152032.640000", "152032.643000", "152032.646000", "152032.648000", "152032.651000", "152032.654000", "152032.657000", "152032.660000", "152032.663000", "152032.666000", "152032.668000", "152032.671000", "152032.674000", "152032.677000", "152032.680000", "152032.683000", "152032.685000", "152032.688000", "152032.691000", "152032.694000", "152032.704000", "152032.707000", "152032.710000", "152032.712000", "152032.715000", "152032.718000", "152112.636000", "152112.639000", "152112.642000", "152112.645000", "152112.647000", "152112.650000", "152112.653000", "152112.656000", "152112.659000", "152112.662000", "152112.665000", "152112.668000", "152112.671000", "152112.673000", "152112.676000", "152112.679000", "152112.682000", "152112.686000", "152112.689000", "152112.691000", "152112.694000", "152112.698000", "152112.701000", "152112.703000", "152112.706000", "152112.709000", "152152.637000", "152152.640000", "152152.643000", "152152.646000", "152152.649000", "152152.651000", "152152.654000", "152152.657000", "152152.666000", "152152.669000", "152152.672000", "152152.674000", "152152.677000", "152152.680000", "152152.683000", "152152.686000", "152152.689000", "152152.692000", "152152.694000", "152152.697000", "152152.700000", "152152.703000", "152152.706000", "152152.709000", "152152.712000", "152152.714000", "152152.717000", "152232.637000", "152232.640000", "152232.643000", "152232.646000", "152232.648000", "152232.651000", "152232.654000", "152232.657000", "152232.660000", "152232.663000", "152232.666000", "152232.668000", "152232.671000", "152232.674000", "152232.677000", "152232.680000", "152232.683000", "152232.685000", "152232.688000", "152232.691000", "152232.694000", "152232.697000", "152232.700000", "152232.703000", "152232.705000", "152232.708000", "152232.711000", "152312.636000", "152312.639000", "152312.642000", "152312.645000", "152312.647000", "152312.650000", "152312.653000", "152312.656000", "152312.659000", "152312.662000", "152312.665000", "152312.668000", "152312.671000", "152312.673000", "152312.676000", "152312.679000", "152312.682000", "152312.685000", "152312.688000", "152312.690000", "152312.693000", "152312.696000", "152312.699000", "152312.702000", "152312.705000", "152312.708000", "152312.710000", "152352.636000", "152352.639000", "152352.642000", "152352.645000", "152352.648000", "152352.650000", "152352.653000", "152352.657000", "152352.660000", "152352.663000", "152352.665000", "152352.668000", "152352.671000", "152352.674000", "152352.677000", "152352.680000", "152352.683000", "152352.685000", "152352.688000", "152352.691000", "152352.694000", "152352.701000", "152352.704000", "152352.707000", "152352.710000", "152352.713000", "152352.716000", "152432.637000", "152432.640000", "152432.643000", "152432.646000", "152432.649000", "152432.651000", "152432.654000", "152432.657000", "152432.660000", "152432.663000", "152432.666000", "152432.669000", "152432.672000", "152432.674000", "152432.677000", "152432.680000", "152432.683000", "152432.686000", "152432.689000", "152432.691000", "152432.694000", "152432.697000", "152432.700000", "152432.703000", "152432.706000", "152432.709000", "152432.711000", "152512.637000", "152512.640000", "152512.643000", "152512.654000", "152512.657000", "152512.659000", "152512.662000", "152512.665000", "152512.668000", "152512.671000", "152512.674000", "152512.677000", "152512.680000", "152512.683000", "152512.686000", "152512.689000", "152512.692000", "152512.695000", "152512.697000", "152512.700000", "152512.703000", "152512.706000", "152512.716000", "152512.719000", "152512.722000", "152512.724000", "152512.727000", "152552.636000", "152552.639000", "152552.642000", "152552.645000", "152552.652000", "152552.655000", "152552.658000", "152552.662000", "152552.665000", "152552.668000", "152552.671000", "152552.674000", "152552.677000", "152552.679000", "152552.682000", "152552.685000", "152552.688000", "152552.691000", "152552.694000", "152552.697000", "152552.700000", "152552.703000", "152552.706000", "152552.708000", "152552.711000", "152552.714000", "152617.155000", "152617.158000", "152617.161000", "152617.164000", "152617.167000", "152617.170000", "152617.173000", "152617.176000", "152617.179000", "152617.182000", "152617.185000", "152617.187000", "152617.190000", "152617.193000", "152617.196000", "152617.199000", "152617.202000"],
