{
  "AcquisitionMatrixPE": 104,
  "AcquisitionNumber": 1,
  "AcquisitionTime": "10:09:47.942500",
  "BandwidthPerPixelPhaseEncode": 17.17,
  "BaseResolution": 104,
  "BodyPartExamined": "BRAIN",
  "CoilString": "HC1-7;NC1_2",
  "ConsistencyInfo": "N4_VE11C_LATEST_20160120",
  "ConversionSoftware": "dcm2niix",
  "ConversionSoftwareVersion": "v1.0.20190902",
  "DerivedVendorReportedEchoSpacing": 0.000560011,
  "DeviceSerialNumber": "167006",
  "DwellTime": 2.1e-06,
  "EchoTime": 0.037,
  "EchoTrainLength": 104,
  "EffectiveEchoSpacing": 0.000560011,
  "FlipAngle": 52,
  "ImageComments": "Unaliased_MB4_PE3_LB",
  "ImageOrientationPatientDICOM": [0.998325, 0.0102518, -0.0569358, -0.0223065, 0.976285, -0.215339],
  "ImageType": [
    "ORIGINAL",
    "PRIMARY",
    "M",
    "MB",
    "ND",
    "MOSAIC"
],
  "ImagingFrequency": 123.259,
  "InPlanePhaseEncodingDirectionDICOM": "COL",
  "InstitutionAddress": "Chemin_Queen-Mary_4565_Montreal_District_CA_H3W_1W5",
  "InstitutionName": "IUGM",
  "InstitutionalDepartmentName": "Department",
  "MRAcquisitionType": "2D",
  "MagneticFieldStrength": 3,
  "Manufacturer": "Siemens",
  "ManufacturersModelName": "Prisma_fit",
  "Modality": "MR",
  "MultibandAccelerationFactor": 4,
  "PartialFourier": 1,
  "PatientPosition": "HFS",
  "PercentPhaseFOV": 100,
  "PhaseEncodingDirection": "j",
  "PhaseEncodingSteps": 104,
  "PhaseResolution": 1,
  "PixelBandwidth": 2290,
  "ProcedureStepDescription": "games_shinobi",
  "ProtocolName": "func_task-shinobi_run-5",
  "PulseSequenceDetails": "%CustomerSeq%_cmrr_mbep2d_bold",
  "ReceiveCoilActiveElements": "HC1-7;NC1,2",
  "ReceiveCoilName": "HeadNeck_64",
  "ReconMatrixPE": 104,
  "RepetitionTime": 1.49,
  "SAR": 0.0288845,
  "ScanOptions": "FS",
  "ScanningSequence": "EP",
  "SequenceName": "epfid2d1_104",
  "SequenceVariant": "SK_SS",
  "SeriesDescription": "func_task-shinobi_run-5",
  "SeriesNumber": 17,
  "ShimSetting": [596, -7245, -8817, 580, -65, -246, 26, 66],
  "SliceThickness": 2,
  "SliceTiming": [0, 0.785, 0.0975, 0.8825, 0.195, 0.98, 0.295, 1.0775, 0.3925, 1.175, 0.49, 1.2725, 0.5875, 1.3725, 0.685, 0, 0.785, 0.0975, 0.8825, 0.195, 0.98, 0.295, 1.0775, 0.3925, 1.175, 0.49, 1.2725, 0.5875, 1.3725, 0.685, 0, 0.785, 0.0975, 0.8825, 0.195, 0.98, 0.295, 1.0775, 0.3925, 1.175, 0.49, 1.2725, 0.5875, 1.3725, 0.685, 0, 0.785, 0.0975, 0.8825, 0.195, 0.98, 0.295, 1.0775, 0.3925, 1.175, 0.49, 1.2725, 0.5875, 1.3725, 0.685],
  "SoftwareVersions": "syngo_MR_E11",
  "SpacingBetweenSlices": 2,
  "StationName": "MRC35049",
  "TaskName": "shinobi",
  "TotalReadoutTime": 0.0576811,
  "TxRefAmp": 214.972,
  "WipMemBlock": "6fe4378b-96fe-4cee-ba11-034eb6a2ae6c||Sequence: R016 ve11c/master r/e634e98; Dec 19 2017 11:00:25 by eja",
  "dcmmeta_affine": [
    [-1.9966504573822021, -0.04461300000548363, -0.10675588250160217, 107.4859390258789],
    [-0.020503520965576172, 1.9525690078735352, -0.4324970543384552, -73.5352783203125],
    [-0.11387161165475845, 0.43067824840545654, 1.9497562646865845, -42.93340301513672],
    [0.0, 0.0, 0.0, 1.0]
],
  "dcmmeta_reorient_transform": [
    [0.0, -1.0, 0.0, 103.0],
    [1.0, 0.0, 0.0, 0.0],
    [0.0, 0.0, 1.0, 0.0],
    [0.0, 0.0, 0.0, 1.0]
],
  "dcmmeta_shape": [104, 104, 60, 538],
  "dcmmeta_slice_dim": 2,
  "dcmmeta_version": 0.6,
  "global": {
    "const": {
      "AcquisitionMatrix": [104, 0, 0, 104],
      "AngioFlag": "N",
      "BitsAllocated": 16,
      "BitsStored": 16,
      "BodyPartExamined": "BRAIN",
      "Columns": 832,
      "EchoNumbers": 1,
      "EchoTime": 37.0,
      "EchoTrainLength": 104,
      "FlipAngle": 52.0,
      "HighBit": 15,
      "ImageOrientationPatient": [0.99832520527631, 0.01025176046168, -0.0569358052323, -0.0223065007028, 0.97628452771546, -0.2153391301408],
      "ImagePositionPatient": [-813.43241461448, -845.77774880073, 199.64260951165],
      "ImageType": [
        "ORIGINAL",
        "PRIMARY",
        "M",
        "MB",
        "ND",
        "MOSAIC"
],
      "ImagedNucleus": "1H",
      "ImagingFrequency": 123.258978,
      "InPlanePhaseEncodingDirection": "COL",
      "MRAcquisitionType": "2D",
      "MagneticFieldStrength": 3.0,
      "Manufacturer": "SIEMENS",
      "ManufacturerModelName": "Prisma_fit",
      "Modality": "MR",
      "NumberOfAverages": 1.0,
      "NumberOfPhaseEncodingSteps": 104,
      "PercentPhaseFieldOfView": 100.0,
      "PercentSampling": 100.0,
      "PerformedProcedureStepStartTime": "090008.191000",
      "PhotometricInterpretation": "MONOCHROME2",
      "PixelBandwidth": 2290.0,
      "PixelRepresentation": 0,
      "PixelSpacing": [2.0, 2.0],
      "ProtocolName": "func_task-shinobi_run-5",
      "RepetitionTime": 1490.0,
      "Rows": 832,
      "SAR": 0.02888452092424,
      "SamplesPerPixel": 1,
      "ScanOptions": "FS",
      "ScanningSequence": "EP",
      "SequenceName": "epfid2d1_104",
      "SequenceVariant": [
        "SK",
        "SS"
],
      "SeriesDescription": "func_task-shinobi_run-5",
      "SeriesNumber": 17,
      "SeriesTime": "101111.707000",
      "SliceLocation": -31.690319071656,
      "SliceThickness": 2.0,
      "SmallestImagePixelValue": 0,
      "SoftwareVersions": "syngo MR E11",
      "SpacingBetweenSlices": 2.0000000327228,
      "SpecificCharacterSet": "ISO_IR 100",
      "StudyID": "1",
      "StudyTime": "090008.066000",
      "TransmitCoilName": "Body",
      "VariableFlipAngleFlag": "N",
      "WindowCenterWidthExplanation": "Algo1",
      "dBdt": 0.0},
    "slices": {}
  },
  "time": {
    "samples": {
      "AcquisitionNumber": [1, 2, 3, 4, 5, 6, 7, 8, 9, 10, 11, 12, 13, 14, 15, 16, 17, 18, 19, 20, 21, 22, 23, 24, 25, 26, 27, 28, 29, 30, 31, 32, 33, 34, 35, 36, 37, 38, 39, 40, 41, 42, 43, 44, 45, 46, 47, 48, 49, 50, 51, 52, 53, 54, 55, 56, 57, 58, 59, 60, 61, 62, 63, 64, 65, 66, 67, 68, 69, 70, 71, 72, 73, 74, 75, 76, 77, 78, 79, 80, 81, 82, 83, 84, 85, 86, 87, 88, 89, 90, 91, 92, 93, 94, 95, 96, 97, 98, 99, 100, 101, 102, 103, 104, 105, 106, 107, 108, 109, 110, 111, 112, 113, 114, 115, 116, 117, 118, 119, 120, 121, 122, 123, 124, 125, 126, 127, 128, 129, 130, 131, 132, 133, 134, 135, 136, 137, 138, 139, 140, 141, 142, 143, 144, 145, 146, 147, 148, 149, 150, 151, 152, 153, 154, 155, 156, 157, 158, 159, 160, 161, 162, 163, 164, 165, 166, 167, 168, 169, 170, 171, 172, 173, 174, 175, 176, 177, 178, 179, 180, 181, 182, 183, 184, 185, 186, 187, 188, 189, 190, 191, 192, 193, 194, 195, 196, 197, 198, 199, 200, 201, 202, 203, 204, 205, 206, 207, 208, 209, 210, 211, 212, 213, 214, 215, 216, 217, 218, 219, 220, 221, 222, 223, 224, 225, 226, 227, 228, 229, 230, 231, 232, 233, 234, 235, 236, 237, 238, 239, 240, 241, 242, 243, 244, 245, 246, 247, 248, 249, 250, 251, 252, 253, 254, 255, 256, 257, 258, 259, 260, 261, 262, 263, 264, 265, 266, 267, 268, 269, 270, 271, 272, 273, 274, 275, 276, 277, 278, 279, 280, 281, 282, 283, 284, 285, 286, 287, 288, 289, 290, 291, 292, 293, 294, 295, 296, 297, 298, 299, 300, 301, 302, 303, 304, 305, 306, 307, 308, 309, 310, 311, 312, 313, 314, 315, 316, 317, 318, 319, 320, 321, 322, 323, 324, 325, 326, 327, 328, 329, 330, 331, 332, 333, 334, 335, 336, 337, 338, 339, 340, 341, 342, 343, 344, 345, 346, 347, 348, 349, 350, 351, 352, 353, 354, 355, 356, 357, 358, 359, 360, 361, 362, 363, 364, 365, 366, 367, 368, 369, 370, 371, 372, 373, 374, 375, 376, 377, 378, 379, 380, 381, 382, 383, 384, 385, 386, 387, 388, 389, 390, 391, 392, 393, 394, 395, 396, 397, 398, 399, 400, 401, 402, 403, 404, 405, 406, 407, 408, 409, 410, 411, 412, 413, 414, 415, 416, 417, 418, 419, 420, 421, 422, 423, 424, 425, 426, 427, 428, 429, 430, 431, 432, 433, 434, 435, 436, 437, 438, 439, 440, 441, 442, 443, 444, 445, 446, 447, 448, 449, 450, 451, 452, 453, 454, 455, 456, 457, 458, 459, 460, 461, 462, 463, 464, 465, 466, 467, 468, 469, 470, 471, 472, 473, 474, 475, 476, 477, 478, 479, 480, 481, 482, 483, 484, 485, 486, 487, 488, 489, 490, 491, 492, 493, 494, 495, 496, 497, 498, 499, 500, 501, 502, 503, 504, 505, 506, 507, 508, 509, 510, 511, 512, 513, 514, 515, 516, 517, 518, 519, 520, 521, 522, 523, 524, 525, 526, 527, 528, 529, 530, 531, 532, 533, 534, 535, 536, 537, 538],
      "AcquisitionTime": ["100947.942500", "100949.432500", "100950.922500", "100952.412500", "100953.902500", "100955.392500", "100956.882500", "100958.372500", "100959.862500", "101001.352500", "101002.842500", "101004.332500", "101005.822500", "101007.312500", "101008.802500", "101010.292500", "101011.782500", "101013.272500", "101014.762500", "101016.252500", "101017.742500", "101019.232500", "101020.722500", "101022.212500", "101023.702500", "101025.192500", "101026.682500", "101028.172500", "101029.662500", "101031.152500", "101032.642500", "101034.132500", "101035.622500", "101037.112500", "101038.602500", "101040.092500", "101041.582500", "101043.072500", "101044.562500", "101046.052500", "101047.542500", "101049.032500", "101050.522500", "101052.012500", "101053.502500", "101054.992500", "101056.482500", "101057.972500", "101059.462500", "101100.952500", "101102.442500", "101103.932500", "101105.422500", "101106.912500", "101108.402500", "101109.892500", "101111.382500", "101112.872500", "101114.362500", "101115.852500", "101117.342500", "101118.832500", "101120.322500", "101121.812500", "101123.302500", "101124.792500", "101126.282500", "101127.772500", "101129.262500", "101130.752500", "101132.242500", "101133.732500", "101135.222500", "101136.712500", "101138.202500", "101139.692500", "101141.182500", "101142.672500", "101144.162500", "101145.652500", "101147.142500", "101148.632500", "101150.122500", "101151.612500", "101153.102500", "101154.592500", "101156.082500", "101157.572500", "101159.062500", "101200.552500", "101202.042500", "101203.532500", "101205.022500", "101206.512500", "101208.002500", "101209.492500", "101210.982500", "101212.472500", "101213.962500", "101215.452500", "101216.942500", "101218.432500", "101219.922500", "101221.412500", "101222.902500", "101224.392500", "101225.882500", "101227.372500", "101228.862500", "101230.352500", "101231.842500", "101233.332500", "101234.822500", "101236.312500", "101237.802500", "101239.292500", "101240.782500", "101242.272500", "101243.762500", "101245.252500", "101246.742500", "101248.232500", "101249.722500", "101251.212500", "101252.702500", "101254.192500", "101255.682500", "101257.172500", "101258.662500", "101300.152500", "101301.642500", "101303.132500", "101304.622500", "101306.112500", "101307.602500", "101309.092500", "101310.582500", "101312.072500", "101313.562500", "101315.052500", "101316.542500", "101318.032500", "101319.522500", "101321.012500", "101322.502500", "101323.992500", "101325.482500", "101326.972500", "101328.462500", "101329.952500", "101331.442500", "101332.932500", "101334.422500", "101335.912500", "101337.402500", "101338.892500", "101340.382500", "101341.872500", "101343.362500", "101344.852500", "101346.342500", "101347.832500", "101349.322500", "101350.812500", "101352.302500", "101353.792500", "101355.282500", "101356.772500", "101358.262500", "101359.752500", "101401.242500", "101402.732500", "101404.222500", "101405.712500", "101407.202500", "101408.692500", "101410.182500", "101411.672500", "101413.162500", "101414.652500", "101416.142500", "101417.632500", "101419.122500", "101420.612500", "101422.102500", "101423.592500", "101425.082500", "101426.572500", "101428.062500", "101429.552500", "101431.042500", "101432.532500", "101434.022500", "101435.512500", "101437.002500", "101438.492500", "101439.982500", "101441.472500", "101442.962500", "101444.452500", "101445.942500", "101447.432500", "101448.922500", "101450.412500", "101451.902500", "101453.392500", "101454.882500", "101456.372500", "101457.862500", "101459.352500", "101500.842500", "101502.332500", "101503.822500", "101505.312500", "101506.802500", "101508.292500", "101509.782500", "101511.272500", "101512.762500", "101514.252500", "101515.742500", "101517.232500", "101518.722500", "101520.212500", "101521.702500", "101523.192500", "101524.682500", "101526.172500", "101527.662500", "101529.152500", "101530.642500", "101532.132500", "101533.622500", "101535.112500", "101536.602500", "101538.092500", "101539.582500", "101541.072500", "101542.562500", "101544.052500", "101545.542500", "101547.032500", "101548.522500", "101550.012500", "101551.502500", "101552.992500", "101554.482500", "101555.972500", "101557.462500", "101558.952500", "101600.442500", "101601.932500", "101603.422500", "101604.912500", "101606.402500", "101607.892500", "101609.382500", "101610.872500", "101612.362500", "101613.852500", "101615.342500", "101616.832500", "101618.322500", "101619.812500", "101621.302500", "101622.792500", "101624.282500", "101625.772500", "101627.262500", "101628.752500", "101630.242500", "101631.732500", "101633.222500", "101634.712500", "101636.202500", "101637.692500", "101639.182500", "101640.672500", "101642.162500", "101643.652500", "101645.142500", "101646.632500", "101648.122500", "101649.612500", "101651.102500", "101652.592500", "101654.082500", "101655.572500", "101657.062500", "101658.552500", "101700.042500", "101701.532500", "101703.022500", "101704.512500", "101706.002500", "101707.492500", "101708.982500", "101710.472500", "101711.962500", "101713.452500", "101714.942500", "101716.432500", "101717.922500", "101719.412500", "101720.902500", "101722.392500", "101723.882500", "101725.372500", "101726.862500", "101728.352500", "101729.842500", "101731.332500", "101732.822500", "101734.312500", "101735.802500", "101737.292500", "101738.782500", "101740.272500", "101741.762500", "101743.252500", "101744.742500", "101746.232500", "101747.722500", "101749.212500", "101750.702500", "101752.192500", "101753.682500", "101755.172500", "101756.662500", "101758.152500", "101759.642500", "101801.132500", "101802.622500", "101804.112500", "101805.602500", "101807.092500", "101808.582500", "101810.072500", "101811.562500", "101813.052500", "101814.542500", "101816.032500", "101817.522500", "101819.012500", "101820.502500", "101821.992500", "101823.482500", "101824.972500", "101826.462500", "101827.952500", "101829.442500", "101830.932500", "101832.422500", "101833.912500", "101835.402500", "101836.892500", "101838.382500", "101839.872500", "101841.362500", "101842.852500", "101844.342500", "101845.832500", "101847.322500", "101848.812500", "101850.302500", "101851.792500", "101853.282500", "101854.772500", "101856.262500", "101857.752500", "101859.242500", "101900.732500", "101902.222500", "101903.712500", "101905.202500", "101906.692500", "101908.182500", "101909.672500", "101911.162500", "101912.652500", "101914.142500", "101915.632500", "101917.122500", "101918.612500", "101920.102500", "101921.592500", "101923.082500", "101924.572500", "101926.062500", "101927.552500", "101929.042500", "101930.532500", "101932.022500", "101933.512500", "101935.002500", "101936.492500", "101937.982500", "101939.472500", "101940.962500", "101942.452500", "101943.942500", "101945.432500", "101946.922500", "101948.412500", "101949.902500", "101951.392500", "101952.882500", "101954.372500", "101955.862500", "101957.352500", "101958.842500", "102000.332500", "102001.822500", "102003.312500", "102004.802500", "102006.292500", "102007.782500", "102009.272500", "102010.762500", "102012.252500", "102013.742500", "102015.232500", "102016.722500", "102018.212500", "102019.702500", "102021.192500", "102022.682500", "102024.172500", "102025.662500", "102027.152500", "102028.642500", "102030.132500", "102031.622500", "102033.112500", "102034.602500", "102036.092500", "102037.582500", "102039.072500", "102040.562500", "102042.052500", "102043.542500", "102045.032500", "102046.522500", "102048.012500", "102049.502500", "102050.992500", "102052.482500", "102053.972500", "102055.462500", "102056.952500", "102058.442500", "102059.932500", "102101.422500", "102102.912500", "102104.402500", "102105.892500", "102107.382500", "102108.872500", "102110.362500", "102111.852500", "102113.342500", "102114.832500", "102116.322500", "102117.812500", "102119.302500", "102120.792500", "102122.282500", "102123.772500", "102125.262500", "102126.752500", "102128.242500", "102129.732500", "102131.222500", "102132.712500", "102134.202500", "102135.692500", "102137.182500", "102138.672500", "102140.162500", "102141.652500", "102143.142500", "102144.632500", "102146.122500", "102147.612500", "102149.102500", "102150.592500", "102152.082500", "102153.572500", "102155.062500", "102156.552500", "102158.042500", "102159.532500", "102201.022500", "102202.512500", "102204.002500", "102205.492500", "102206.982500", "102208.472500", "102209.962500", "102211.452500", "102212.942500", "102214.432500", "102215.922500", "102217.412500", "102218.902500", "102220.392500", "102221.882500", "102223.372500", "102224.862500", "102226.352500", "102227.842500", "102229.332500", "102230.822500", "102232.312500", "102233.802500", "102235.292500", "102236.782500", "102238.272500", "102239.762500", "102241.252500", "102242.742500", "102244.232500", "102245.722500", "102247.212500", "102248.702500", "102250.192500", "102251.682500", "102253.172500", "102254.662500", "102256.152500", "102257.642500", "102259.132500", "102300.622500", "102302.112500", "102303.602500", "102305.092500", "102306.582500", "102308.072500"],
      "ContentTime": ["101111.711000", "101111.715000", "101111.718000", "101111.720000", "101111.723000", "101111.726000", "101111.729000", "101111.732000", "101111.735000", "101111.737000", "101111.740000", "101111.743000", "101111.746000", "101111.749000", "101111.752000", "101111.755000", "101111.757000", "101111.760000", "101111.763000", "101111.766000", "101111.769000", "101111.772000", "101111.775000", "101111.777000", "101111.785000", "101111.788000", "101111.798000", "101111.801000", "101111.804000", "101131.671000", "101131.674000", "101131.677000", "101131.679000", "101131.682000", "101131.685000", "101131.688000", "101131.691000", "101131.694000", "101131.697000", "101131.699000", "101131.711000", "101131.713000", "101131.716000", "101131.719000", "101131.722000", "101131.725000", "101131.728000", "101131.736000", "101131.738000", "101151.671000", "101151.674000", "101151.697000", "101151.700000", "101151.702000", "101151.705000", "101151.708000", "101151.711000", "101151.714000", "101151.717000", "101151.720000", "101151.723000", "101151.725000", "101151.728000", "101151.731000", "101151.734000", "101151.737000", "101151.740000", "101151.743000", "101151.746000", "101211.671000", "101211.674000", "101211.686000", "101211.689000", "101211.692000", "101211.695000", "101211.698000", "101211.701000", "101211.704000", "101211.707000", "101211.709000", "101211.712000", "101211.725000", "101211.728000", "101211.731000", "101211.734000", "101211.736000", "101211.739000", "101211.742000", "101211.745000", "101231.671000", "101231.674000", "101231.677000", "101231.680000", "101231.682000", "101231.685000", "101231.688000", "101231.691000", "101231.694000", "101231.697000", "101231.699000", "101231.710000", "101231.712000", "101231.715000", "101231.718000", "101231.721000", "101231.724000", "101231.727000", "101231.729000", "101231.732000", "101311.672000", "101311.675000", "101311.678000", "101311.681000", "101311.684000", "101311.687000", "101311.689000", "101311.692000", "101311.695000", "101311.698000", "101311.701000", "101311.704000", "101311.707000", "101311.710000", "101311.712000", "101311.715000", "101311.719000", "101311.722000", "101311.724000", "101311.727000", "101311.730000", "101311.733000", "101311.736000", "101311.739000", "101311.742000", "101311.744000", "101311.747000", "101351.671000", "101351.674000", "101351.677000", "101351.680000", "101351.682000", "101351.685000", "101351.688000", "101351.691000", "101351.694000", "101351.697000", "101351.700000", "101351.702000", "101351.705000", "101351.708000", "101351.711000", "101351.714000", "101351.717000", "101351.719000", "101351.722000", "101351.725000", "101351.728000", "101351.731000", "101351.734000", "101351.736000", "101351.739000", "101351.742000", "101351.745000", "101431.671000", "101431.674000", "101431.677000", "101431.680000", "101431.682000", "101431.685000", "101431.688000", "101431.699000", "101431.702000", "101431.704000", "101431.707000", "101431.710000", "101431.713000", "101431.716000", "101431.719000", "101431.721000", "101431.724000", "101431.727000", "101431.730000", "101431.733000", "101431.736000", "101431.739000", "101431.742000", "101431.745000", "101431.747000", "101431.750000", "101431.753000", "101511.671000", "101511.674000", "101511.677000", "101511.680000", "101511.683000", "101511.685000", "101511.688000", "101511.691000", "101511.694000", "101511.697000", "101511.700000", "101511.702000", "101511.705000", "101511.708000", "101511.711000", "101511.714000", "101511.717000", "101511.720000", "101511.722000", "101511.725000", "101511.728000", "101511.731000", "101511.734000", "101511.737000", "101511.747000", "101511.750000", "101551.672000", "101551.675000", "101551.678000", "101551.681000", "101551.683000", "101551.686000", "101551.689000", "101551.692000", "101551.695000", "101551.698000", "101551.701000", "101551.703000", "101551.706000", "101551.709000", "101551.712000", "101551.715000", "101551.717000", "101551.720000", "101551.737000", "101551.739000", "101551.742000", "101551.745000", "101551.748000", "101551.751000", "101551.754000", "101551.756000", "101551.770000", "101631.671000", "101631.674000", "101631.677000", "101631.680000", "101631.683000", "101631.685000", "101631.688000", "101631.691000", "101631.694000", "101631.697000", "101631.700000", "101631.702000", "101631.705000", "101631.708000", "101631.711000", "101631.714000", "101631.717000", "101631.720000", "101631.723000", "101631.725000", "101631.728000", "101631.731000", "101631.734000", "101631.737000", "101631.740000", "101631.743000", "101631.745000", "101711.671000", "101711.674000", "101711.677000", "101711.680000", "101711.683000", "101711.685000", "101711.688000", "101711.691000", "101711.694000", "101711.697000", "101711.700000", "101711.703000", "101711.705000", "101711.708000", "101711.711000", "101711.714000", "101711.717000", "101711.720000", "101711.722000", "101711.725000", "101711.728000", "101711.731000", "101711.734000", "101711.736000", "101711.739000", "101711.742000", "101711.745000", "101751.672000", "101751.675000", "101751.678000", "101751.681000", "101751.684000", "101751.687000", "101751.689000", "101751.692000", "101751.695000", "101751.698000", "101751.701000", "101751.704000", "101751.707000", "101751.709000", "101751.712000", "101751.715000", "101751.718000", "101751.721000", "101751.724000", "101751.726000", "101751.729000", "101751.732000", "101751.735000", "101751.738000", "101751.741000", "101751.744000", "101751.746000", "101831.671000", "101831.674000", "101831.677000", "101831.680000", "101831.682000", "101831.685000", "101831.688000", "101831.691000", "101831.694000", "101831.697000", "101831.700000", "101831.702000", "101831.705000", "101831.708000", "101831.711000", "101831.714000", "101831.717000", "101831.720000", "101831.722000", "101831.725000", "101831.728000", "101831.731000", "101831.734000", "101831.737000", "101831.740000", "101831.743000", "101831.745000", "101911.671000", "101911.674000", "101911.677000", "101911.680000", "101911.683000", "101911.685000", "101911.688000", "101911.691000", "101911.694000", "101911.697000", "101911.700000", "101911.703000", "101911.706000", "101911.709000", "101911.712000", "101911.714000", "101911.717000", "101911.720000", "101911.723000", "101911.730000", "101911.733000", "101911.736000", "101911.738000", "101911.741000", "101911.744000", "101911.747000", "101951.671000", "101951.674000", "101951.677000", "101951.680000", "101951.683000", "101951.693000", "101951.696000", "101951.699000", "101951.702000", "101951.704000", "101951.707000", "101951.710000", "101951.713000", "101951.716000", "101951.718000", "101951.721000", "101951.724000", "101951.727000", "101951.730000", "101951.733000", "101951.736000", "101951.738000", "101951.741000", "101951.744000", "101951.753000", "101951.756000", "101951.759000", "102031.671000", "102031.674000", "102031.677000", "102031.680000", "102031.682000", "102031.685000", "102031.688000", "102031.691000", "102031.694000", "102031.697000", "102031.700000", "102031.702000", "102031.705000", "102031.708000", "102031.726000", "102031.729000", "102031.732000", "102031.735000", "102031.738000", "102031.740000", "102031.743000", "102031.746000", "102031.749000", "102031.752000", "102031.755000", "102031.758000", "102031.760000", "102111.671000", "102111.674000", "102111.677000", "102111.680000", "102111.683000", "102111.686000", "102111.688000", "102111.691000", "102111.694000", "102111.697000", "102111.700000", "102111.702000", "102111.705000", "102111.708000", "102111.711000", "102111.714000", "102111.717000", "102111.719000", "102111.722000", "102111.725000", "102111.728000", "102111.731000", "102111.734000", "102111.745000", "102111.747000", "102111.750000", "102111.753000", "102151.671000", "102151.674000", "102151.677000", "102151.680000", "102151.682000", "102151.685000", "102151.688000", "102151.691000", "102151.694000", "102151.697000", "102151.700000", "102151.703000", "102151.706000", "102151.708000", "102151.711000", "102151.714000", "102151.717000", "102151.720000", "102151.723000", "102151.725000", "102151.728000", "102151.731000", "102151.734000", "102151.737000", "102151.740000", "102151.743000", "102151.745000", "102231.672000", "102231.675000", "102231.678000", "102231.681000", "102231.684000", "102231.687000", "102231.697000", "102231.700000", "102231.703000", "102231.706000", "102231.709000", "102231.712000", "102231.714000", "102231.717000", "102231.720000", "102231.723000", "102231.726000", "102231.729000", "102231.731000", "102231.734000", "102231.737000", "102231.740000", "102231.743000", "102231.746000", "102231.749000", "102231.751000", "102231.754000", "102310.230000", "102310.233000", "102310.236000", "102310.239000", "102310.242000", "102310.245000", "102310.248000", "102310.251000", "102310.253000", "102310.256000", "102310.259000", "102310.262000", "102310.265000", "102310.268000", "102310.271000", "102310.273000", "102310.276000", "102310.279000", "102310.282000", "102310.285000", "102310.288000", "102310.291000", "102310.294000", "102310.296000", "102310.299000", "102310.302000"],
