{
  "AcquisitionMatrixPE": 104,
  "AcquisitionNumber": 1,
  "AcquisitionTime": "09:45:55.417500",
  "BandwidthPerPixelPhaseEncode": 17.17,
  "BaseResolution": 104,
  "BodyPartExamined": "BRAIN",
  "CoilString": "HC1-7;NC1_2",
  "ConsistencyInfo": "N4_VE11C_LATEST_20160120",
  "ConversionSoftware": "dcm2niix",
  "ConversionSoftwareVersion": "v1.0.20190902",
  "DerivedVendorReportedEchoSpacing": 0.000560011,
  "DeviceSerialNumber": "167006",
  "DwellTime": 2.1e-06,
  "EchoTime": 0.037,
  "EchoTrainLength": 104,
  "EffectiveEchoSpacing": 0.000560011,
  "FlipAngle": 52,
  "ImageComments": "Unaliased_MB4_PE3_LB",
  "ImageOrientationPatientDICOM": [0.998325, 0.0102518, -0.0569358, -0.0223065, 0.976285, -0.215339],
  "ImageType": [
    "ORIGINAL",
    "PRIMARY",
    "M",
    "MB",
    "ND",
    "MOSAIC"
],
  "ImagingFrequency": 123.259,
  "InPlanePhaseEncodingDirectionDICOM": "COL",
  "InstitutionAddress": "Chemin_Queen-Mary_4565_Montreal_District_CA_H3W_1W5",
  "InstitutionName": "IUGM",
  "InstitutionalDepartmentName": "Department",
  "MRAcquisitionType": "2D",
  "MagneticFieldStrength": 3,
  "Manufacturer": "Siemens",
  "ManufacturersModelName": "Prisma_fit",
  "Modality": "MR",
  "MultibandAccelerationFactor": 4,
  "PartialFourier": 1,
  "PatientPosition": "HFS",
  "PercentPhaseFOV": 100,
  "PhaseEncodingDirection": "j",
  "PhaseEncodingSteps": 104,
  "PhaseResolution": 1,
  "PixelBandwidth": 2290,
  "ProcedureStepDescription": "games_shinobi",
  "ProtocolName": "func_task-shinobi_run-3",
  "PulseSequenceDetails": "%CustomerSeq%_cmrr_mbep2d_bold",
  "ReceiveCoilActiveElements": "HC1-7;NC1,2",
  "ReceiveCoilName": "HeadNeck_64",
  "ReconMatrixPE": 104,
  "RepetitionTime": 1.49,
  "SAR": 0.0288845,
  "ScanOptions": "FS",
  "ScanningSequence": "EP",
  "SequenceName": "epfid2d1_104",
  "SequenceVariant": "SK_SS",
  "SeriesDescription": "func_task-shinobi_run-3",
  "SeriesNumber": 13,
  "ShimSetting": [596, -7245, -8817, 580, -65, -246, 26, 66],
  "SliceThickness": 2,
  "SliceTiming": [0, 0.785, 0.0975, 0.8825, 0.1975, 0.98, 0.295, 1.0775, 0.3925, 1.1775, 0.49, 1.275, 0.5875, 1.3725, 0.6875, 0, 0.785, 0.0975, 0.8825, 0.1975, 0.98, 0.295, 1.0775, 0.3925, 1.1775, 0.49, 1.275, 0.5875, 1.3725, 0.6875, 0, 0.785, 0.0975, 0.8825, 0.1975, 0.98, 0.295, 1.0775, 0.3925, 1.1775, 0.49, 1.275, 0.5875, 1.3725, 0.6875, 0, 0.785, 0.0975, 0.8825, 0.1975, 0.98, 0.295, 1.0775, 0.3925, 1.1775, 0.49, 1.275, 0.5875, 1.3725, 0.6875],
  "SoftwareVersions": "syngo_MR_E11",
  "SpacingBetweenSlices": 2,
  "StationName": "MRC35049",
  "TaskName": "shinobi",
  "TotalReadoutTime": 0.0576811,
  "TxRefAmp": 214.972,
  "WipMemBlock": "e5ced414-d0e8-4005-a830-5f0b9e4da8b1||Sequence: R016 ve11c/master r/e634e98; Dec 19 2017 11:00:25 by eja",
  "dcmmeta_affine": [
    [-1.9966504573822021, -0.04461300000548363, -0.10675588250160217, 107.4859390258789],
    [-0.020503520965576172, 1.9525690078735352, -0.4324970543384552, -73.5352783203125],
    [-0.11387161165475845, 0.43067824840545654, 1.9497562646865845, -42.93340301513672],
    [0.0, 0.0, 0.0, 1.0]
],
  "dcmmeta_reorient_transform": [
    [0.0, -1.0, 0.0, 103.0],
    [1.0, 0.0, 0.0, 0.0],
    [0.0, 0.0, 1.0, 0.0],
    [0.0, 0.0, 0.0, 1.0]
],
  "dcmmeta_shape": [104, 104, 60, 428],
  "dcmmeta_slice_dim": 2,
  "dcmmeta_version": 0.6,
  "global": {
    "const": {
      "AcquisitionMatrix": [104, 0, 0, 104],
      "AngioFlag": "N",
      "BitsAllocated": 16,
      "BitsStored": 16,
      "BodyPartExamined": "BRAIN",
      "Columns": 832,
      "EchoNumbers": 1,
      "EchoTime": 37.0,
      "EchoTrainLength": 104,
      "FlipAngle": 52.0,
      "HighBit": 15,
      "ImageOrientationPatient": [0.99832520527631, 0.01025176046168, -0.0569358052323, -0.0223065007028, 0.97628452771546, -0.2153391301408],
      "ImagePositionPatient": [-813.43241461448, -845.77774880073, 199.64260951165],
      "ImageType": [
        "ORIGINAL",
        "PRIMARY",
        "M",
        "MB",
        "ND",
        "MOSAIC"
],
      "ImagedNucleus": "1H",
      "ImagingFrequency": 123.258972,
      "InPlanePhaseEncodingDirection": "COL",
      "MRAcquisitionType": "2D",
      "MagneticFieldStrength": 3.0,
      "Manufacturer": "SIEMENS",
      "ManufacturerModelName": "Prisma_fit",
      "Modality": "MR",
      "NumberOfAverages": 1.0,
      "NumberOfPhaseEncodingSteps": 104,
      "PercentPhaseFieldOfView": 100.0,
      "PercentSampling": 100.0,
      "PerformedProcedureStepStartTime": "090008.191000",
      "PhotometricInterpretation": "MONOCHROME2",
      "PixelBandwidth": 2290.0,
      "PixelRepresentation": 0,
      "PixelSpacing": [2.0, 2.0],
      "ProtocolName": "func_task-shinobi_run-3",
      "RepetitionTime": 1490.0,
      "Rows": 832,
      "SAR": 0.02888452092424,
      "SamplesPerPixel": 1,
      "ScanOptions": "FS",
      "ScanningSequence": "EP",
      "SequenceName": "epfid2d1_104",
      "SequenceVariant": [
        "SK",
        "SS"
],
      "SeriesDescription": "func_task-shinobi_run-3",
      "SeriesNumber": 13,
      "SeriesTime": "094711.547000",
      "SliceLocation": -31.690319071656,
      "SliceThickness": 2.0,
      "SmallestImagePixelValue": 0,
      "SoftwareVersions": "syngo MR E11",
      "SpacingBetweenSlices": 2.0000000327228,
      "SpecificCharacterSet": "ISO_IR 100",
      "StudyID": "1",
      "StudyTime": "090008.066000",
      "TransmitCoilName": "Body",
      "VariableFlipAngleFlag": "N",
      "WindowCenterWidthExplanation": "Algo1",
      "dBdt": 0.0},
    "slices": {}
  },
  "time": {
    "samples": {
      "AcquisitionNumber": [1, 2, 3, 4, 5, 6, 7, 8, 9, 10, 11, 12, 13, 14, 15, 16, 17, 18, 19, 20, 21, 22, 23, 24, 25, 26, 27, 28, 29, 30, 31, 32, 33, 34, 35, 36, 37, 38, 39, 40, 41, 42, 43, 44, 45, 46, 47, 48, 49, 50, 51, 52, 53, 54, 55, 56, 57, 58, 59, 60, 61, 62, 63, 64, 65, 66, 67, 68, 69, 70, 71, 72, 73, 74, 75, 76, 77, 78, 79, 80, 81, 82, 83, 84, 85, 86, 87, 88, 89, 90, 91, 92, 93, 94, 95, 96, 97, 98, 99, 100, 101, 102, 103, 104, 105, 106, 107, 108, 109, 110, 111, 112, 113, 114, 115, 116, 117, 118, 119, 120, 121, 122, 123, 124, 125, 126, 127, 128, 129, 130, 131, 132, 133, 134, 135, 136, 137, 138, 139, 140, 141, 142, 143, 144, 145, 146, 147, 148, 149, 150, 151, 152, 153, 154, 155, 156, 157, 158, 159, 160, 161, 162, 163, 164, 165, 166, 167, 168, 169, 170, 171, 172, 173, 174, 175, 176, 177, 178, 179, 180, 181, 182, 183, 184, 185, 186, 187, 188, 189, 190, 191, 192, 193, 194, 195, 196, 197, 198, 199, 200, 201, 202, 203, 204, 205, 206, 207, 208, 209, 210, 211, 212, 213, 214, 215, 216, 217, 218, 219, 220, 221, 222, 223, 224, 225, 226, 227, 228, 229, 230, 231, 232, 233, 234, 235, 236, 237, 238, 239, 240, 241, 242, 243, 244, 245, 246, 247, 248, 249, 250, 251, 252, 253, 254, 255, 256, 257, 258, 259, 260, 261, 262, 263, 264, 265, 266, 267, 268, 269, 270, 271, 272, 273, 274, 275, 276, 277, 278, 279, 280, 281, 282, 283, 284, 285, 286, 287, 288, 289, 290, 291, 292, 293, 294, 295, 296, 297, 298, 299, 300, 301, 302, 303, 304, 305, 306, 307, 308, 309, 310, 311, 312, 313, 314, 315, 316, 317, 318, 319, 320, 321, 322, 323, 324, 325, 326, 327, 328, 329, 330, 331, 332, 333, 334, 335, 336, 337, 338, 339, 340, 341, 342, 343, 344, 345, 346, 347, 348, 349, 350, 351, 352, 353, 354, 355, 356, 357, 358, 359, 360, 361, 362, 363, 364, 365, 366, 367, 368, 369, 370, 371, 372, 373, 374, 375, 376, 377, 378, 379, 380, 381, 382, 383, 384, 385, 386, 387, 388, 389, 390, 391, 392, 393, 394, 395, 396, 397, 398, 399, 400, 401, 402, 403, 404, 405, 406, 407, 408, 409, 410, 411, 412, 413, 414, 415, 416, 417, 418, 419, 420, 421, 422, 423, 424, 425, 426, 427, 428],
      "AcquisitionTime": ["094555.417500", "094556.907500", "094558.397500", "094559.887500", "094601.377500", "094602.867500", "094604.357500", "094605.847500", "094607.337500", "094608.827500", "094610.317500", "094611.807500", "094613.297500", "094614.787500", "094616.277500", "094617.767500", "094619.257500", "094620.747500", "094622.237500", "094623.727500", "094625.217500", "094626.707500", "094628.197500", "094629.687500", "094631.177500", "094632.667500", "094634.157500", "094635.647500", "094637.137500", "094638.627500", "094640.117500", "094641.607500", "094643.097500", "094644.587500", "094646.077500", "094647.567500", "094649.057500", "094650.547500", "094652.037500", "094653.527500", "094655.017500", "094656.507500", "094657.997500", "094659.487500", "094700.977500", "094702.467500", "094703.957500", "094705.447500", "094706.937500", "094708.427500", "094709.917500", "094711.407500", "094712.897500", "094714.387500", "094715.877500", "094717.367500", "094718.857500", "094720.347500", "094721.837500", "094723.327500", "094724.817500", "094726.307500", "094727.797500", "094729.287500", "094730.777500", "094732.267500", "094733.757500", "094735.247500", "094736.737500", "094738.227500", "094739.717500", "094741.207500", "094742.697500", "094744.187500", "094745.677500", "094747.167500", "094748.657500", "094750.147500", "094751.637500", "094753.127500", "094754.617500", "094756.107500", "094757.597500", "094759.087500", "094800.577500", "094802.067500", "094803.557500", "094805.047500", "094806.537500", "094808.027500", "094809.517500", "094811.007500", "094812.497500", "094813.987500", "094815.477500", "094816.967500", "094818.457500", "094819.947500", "094821.437500", "094822.927500", "094824.417500", "094825.907500", "094827.397500", "094828.887500", "094830.377500", "094831.867500", "094833.357500", "094834.847500", "094836.337500", "094837.827500", "094839.317500", "094840.807500", "094842.297500", "094843.787500", "094845.277500", "094846.767500", "094848.257500", "094849.747500", "094851.237500", "094852.727500", "094854.217500", "094855.707500", "094857.197500", "094858.687500", "094900.177500", "094901.667500", "094903.157500", "094904.647500", "094906.137500", "094907.627500", "094909.117500", "094910.607500", "094912.097500", "094913.587500", "094915.077500", "094916.567500", "094918.057500", "094919.547500", "094921.037500", "094922.527500", "094924.017500", "094925.507500", "094926.997500", "094928.487500", "094929.977500", "094931.467500", "094932.957500", "094934.447500", "094935.937500", "094937.427500", "094938.917500", "094940.407500", "094941.897500", "094943.387500", "094944.877500", "094946.367500", "094947.857500", "094949.347500", "094950.837500", "094952.327500", "094953.817500", "094955.307500", "094956.797500", "094958.287500", "094959.777500", "095001.267500", "095002.757500", "095004.247500", "095005.737500", "095007.227500", "095008.717500", "095010.207500", "095011.697500", "095013.187500", "095014.677500", "095016.167500", "095017.657500", "095019.147500", "095020.637500", "095022.127500", "095023.617500", "095025.107500", "095026.597500", "095028.087500", "095029.577500", "095031.067500", "095032.557500", "095034.047500", "095035.537500", "095037.027500", "095038.517500", "095040.007500", "095041.497500", "095042.987500", "095044.477500", "095045.967500", "095047.457500", "095048.947500", "095050.437500", "095051.927500", "095053.417500", "095054.907500", "095056.397500", "095057.887500", "095059.377500", "095100.867500", "095102.357500", "095103.847500", "095105.337500", "095106.827500", "095108.317500", "095109.807500", "095111.297500", "095112.787500", "095114.277500", "095115.767500", "095117.257500", "095118.747500", "095120.237500", "095121.727500", "095123.217500", "095124.707500", "095126.197500", "095127.687500", "095129.177500", "095130.667500", "095132.157500", "095133.647500", "095135.137500", "095136.627500", "095138.117500", "095139.607500", "095141.097500", "095142.587500", "095144.077500", "095145.567500", "095147.057500", "095148.547500", "095150.037500", "095151.527500", "095153.017500", "095154.507500", "095155.997500", "095157.487500", "095158.977500", "095200.467500", "095201.957500", "095203.447500", "095204.937500", "095206.427500", "095207.917500", "095209.407500", "095210.897500", "095212.387500", "095213.877500", "095215.367500", "095216.857500", "095218.347500", "095219.837500", "095221.327500", "095222.817500", "095224.307500", "095225.797500", "095227.287500", "095228.777500", "095230.267500", "095231.757500", "095233.247500", "095234.737500", "095236.227500", "095237.717500", "095239.207500", "095240.697500", "095242.187500", "095243.677500", "095245.167500", "095246.657500", "095248.147500", "095249.637500", "095251.127500", "095252.617500", "095254.107500", "095255.597500", "095257.087500", "095258.577500", "095300.067500", "095301.557500", "095303.047500", "095304.537500", "095306.027500", "095307.517500", "095309.007500", "095310.497500", "095311.987500", "095313.477500", "095314.967500", "095316.457500", "095317.947500", "095319.437500", "095320.927500", "095322.417500", "095323.907500", "095325.397500", "095326.887500", "095328.377500", "095329.867500", "095331.357500", "095332.847500", "095334.337500", "095335.827500", "095337.317500", "095338.807500", "095340.297500", "095341.787500", "095343.277500", "095344.767500", "095346.257500", "095347.747500", "095349.237500", "095350.727500", "095352.217500", "095353.707500", "095355.197500", "095356.687500", "095358.177500", "095359.667500", "095401.157500", "095402.647500", "095404.137500", "095405.627500", "095407.117500", "095408.607500", "095410.097500", "095411.587500", "095413.077500", "095414.567500", "095416.057500", "095417.547500", "095419.037500", "095420.527500", "095422.017500", "095423.507500", "095424.997500", "095426.487500", "095427.977500", "095429.467500", "095430.957500", "095432.447500", "095433.937500", "095435.427500", "095436.917500", "095438.407500", "095439.897500", "095441.387500", "095442.877500", "095444.367500", "095445.857500", "095447.347500", "095448.837500", "095450.327500", "095451.817500", "095453.307500", "095454.797500", "095456.287500", "095457.777500", "095459.267500", "095500.757500", "095502.247500", "095503.737500", "095505.227500", "095506.717500", "095508.207500", "095509.697500", "095511.187500", "095512.677500", "095514.167500", "095515.657500", "095517.147500", "095518.637500", "095520.127500", "095521.617500", "095523.107500", "095524.597500", "095526.087500", "095527.577500", "095529.067500", "095530.557500", "095532.047500", "095533.537500", "095535.027500", "095536.517500", "095538.007500", "095539.497500", "095540.987500", "095542.477500", "095543.967500", "095545.457500", "095546.947500", "095548.437500", "095549.927500", "095551.417500", "095552.907500", "095554.397500", "095555.887500", "095557.377500", "095558.867500", "095600.357500", "095601.847500", "095603.337500", "095604.827500", "095606.317500", "095607.807500", "095609.297500", "095610.787500", "095612.277500", "095613.767500", "095615.257500", "095616.747500", "095618.237500", "095619.727500", "095621.217500", "095622.707500", "095624.197500", "095625.687500", "095627.177500", "095628.667500", "095630.157500", "095631.647500"],
      "ContentTime": ["094711.549000", "094711.553000", "094711.555000", "094711.558000", "094711.561000", "094711.564000", "094711.567000", "094711.576000", "094711.579000", "094711.582000", "094711.585000", "094711.588000", "094711.591000", "094711.594000", "094711.597000", "094711.606000", "094711.608000", "094711.617000", "094711.620000", "094711.623000", "094711.625000", "094711.628000", "094731.521000", "094731.524000", "094731.527000", "094731.530000", "094731.532000", "094731.535000", "094731.538000", "094731.541000", "094731.544000", "094731.546000", "094731.549000", "094731.552000", "094731.555000", "094731.558000", "094731.560000", "094731.563000", "094731.566000", "094731.569000", "094731.572000", "094731.575000", "094751.521000", "094751.524000", "094751.527000", "094751.529000", "094751.532000", "094751.535000", "094751.538000", "094751.541000", "094751.544000", "094751.546000", "094751.549000", "094751.552000", "094751.555000", "094751.558000", "094751.560000", "094751.563000", "094751.566000", "094751.569000", "094751.572000", "094751.582000", "094811.520000", "094811.523000", "094811.526000", "094811.529000", "094811.531000", "094811.534000", "094811.537000", "094811.540000", "094811.543000", "094811.546000", "094811.549000", "094811.552000", "094811.554000", "094811.557000", "094811.560000", "094811.563000", "094811.566000", "094811.569000", "094811.572000", "094811.574000", "094831.520000", "094831.523000", "094831.526000", "094831.529000", "094831.531000", "094831.534000", "094831.537000", "094831.540000", "094831.543000", "094831.546000", "094831.549000", "094831.551000", "094831.554000", "094831.557000", "094831.560000", "094831.563000", "094831.566000", "094831.569000", "094831.572000", "094831.574000", "094911.520000", "094911.523000", "094911.526000", "094911.528000", "094911.531000", "094911.534000", "094911.537000", "094911.540000", "094911.543000", "094911.546000", "094911.548000", "094911.551000", "094911.554000", "094911.557000", "094911.560000", "094911.563000", "094911.565000", "094911.568000", "094911.571000", "094911.574000", "094911.577000", "094911.580000", "094911.583000", "094911.585000", "094911.588000", "094911.591000", "094911.594000", "094911.597000", "094911.599000", "094951.521000", "094951.524000", "094951.534000", "094951.537000", "094951.540000", "094951.542000", "094951.545000", "094951.548000", "094951.551000", "094951.554000", "094951.557000", "094951.559000", "094951.572000", "094951.575000", "094951.577000", "094951.580000", "094951.583000", "094951.586000", "094951.589000", "094951.592000", "094951.599000", "094951.601000", "094951.604000", "094951.607000", "094951.610000", "094951.613000", "094951.616000", "095031.522000", "095031.526000", "095031.528000", "095031.531000", "095031.534000", "095031.537000", "095031.540000", "095031.543000", "095031.545000", "095031.548000", "095031.551000", "095031.554000", "095031.557000", "095031.568000", "095031.571000", "095031.574000", "095031.577000", "095031.580000", "095031.583000", "095031.586000", "095031.588000", "095031.591000", "095031.594000", "095031.597000", "095031.600000", "095031.602000", "095111.520000", "095111.523000", "095111.526000", "095111.528000", "095111.531000", "095111.534000", "095111.537000", "095111.540000", "095111.543000", "095111.546000", "095111.548000", "095111.556000", "095111.559000", "095111.562000", "095111.565000", "095111.568000", "095111.571000", "095111.574000", "095111.576000", "095111.579000", "095111.582000", "095111.585000", "095111.588000", "095111.590000", "095111.593000", "095111.596000", "095111.599000", "095151.520000", "095151.523000", "095151.526000", "095151.537000", "095151.540000", "095151.543000", "095151.546000", "095151.549000", "095151.552000", "095151.555000", "095151.558000", "095151.560000", "095151.563000", "095151.566000", "095151.569000", "095151.572000", "095151.575000", "095151.578000", "095151.581000", "095151.583000", "095151.586000", "095151.589000", "095151.592000", "095151.595000", "095151.598000", "095151.600000", "095151.603000", "095231.521000", "095231.524000", "095231.527000", "095231.530000", "095231.533000", "095231.536000", "095231.538000", "095231.541000", "095231.544000", "095231.547000", "095231.550000", "095231.553000", "095231.556000", "095231.558000", "095231.561000", "095231.564000", "095231.567000", "095231.570000", "095231.573000", "095231.576000", "095231.579000", "095231.582000", "095231.584000", "095231.587000", "095231.590000", "095231.593000", "095231.596000", "095311.520000", "095311.523000", "095311.526000", "095311.529000", "095311.532000", "095311.535000", "095311.538000", "095311.540000", "095311.543000", "095311.546000", "095311.549000", "095311.552000", "095311.555000", "095311.557000", "095311.560000", "095311.563000", "095311.566000", "095311.569000", "095311.572000", "095311.575000", "095311.577000", "095311.580000", "095311.583000", "095311.586000", "095311.589000", "095311.592000", "095311.594000", "095351.520000", "095351.523000", "095351.526000", "095351.529000", "095351.531000", "095351.534000", "095351.537000", "095351.540000", "095351.543000", "095351.546000", "095351.548000", "095351.551000", "095351.554000", "095351.557000", "095351.560000", "095351.568000", "095351.571000", "095351.574000", "095351.576000", "095351.579000", "095351.582000", "095351.585000", "095351.588000", "095351.590000", "095351.593000", "095351.596000", "095351.599000", "095431.521000", "095431.524000", "095431.527000", "095431.530000", "095431.533000", "095431.536000", "095431.539000", "095431.542000", "095431.574000", "095431.576000", "095431.579000", "095431.582000", "095431.585000", "095431.588000", "095431.591000", "095431.593000", "095431.610000", "095431.612000", "095431.615000", "095431.618000", "095431.621000", "095431.624000", "095431.626000", "095431.629000", "095431.632000", "095431.635000", "095511.520000", "095511.523000", "095511.532000", "095511.535000", "095511.537000", "095511.540000", "095511.543000", "095511.546000", "095511.549000", "095511.552000", "095511.554000", "095511.557000", "095511.560000", "095511.563000", "095511.566000", "095511.569000", "095511.571000", "095511.574000", "095511.577000", "095511.580000", "095511.583000", "095511.586000", "095511.589000", "095511.591000", "095511.594000", "095511.597000", "095511.600000", "095551.520000", "095551.523000", "095551.526000", "095551.529000", "095551.531000", "095551.534000", "095551.537000", "095551.540000", "095551.543000", "095551.546000", "095551.549000", "095551.551000", "095551.554000", "095551.557000", "095551.560000", "095551.563000", "095551.566000", "095551.569000", "095551.571000", "095551.574000", "095551.577000", "095551.580000", "095551.583000", "095551.586000", "095551.589000", "095551.591000", "095551.594000", "095631.520000", "095631.523000", "095631.526000", "095631.529000", "095631.532000", "095631.535000", "095631.537000", "095631.540000", "095631.548000", "095631.551000", "095631.553000", "095631.556000", "095631.559000", "095631.562000", "095631.565000", "095631.568000", "095631.571000", "095631.574000", "095631.577000", "095631.579000", "095631.582000", "095631.585000", "095631.588000", "095631.591000", "095631.594000", "095631.597000", "095631.600000", "095634.926000", "095634.930000"],
      "InstanceCreationTime": ["094711.549000", "094711.553000", "094711.555000", "094711.558000", "094711.561000", "094711.564000", "094711.567000", "094711.576000", "094711.579000", "094711.582000", "094711.585000", "094711.588000", "094711.591000", "094711.594000", "094711.597000", "094711.606000", "094711.608000", "094711.617000", "094711.620000", "094711.623000", "094711.625000", "094711.628000", "094731.521000", "094731.524000", "094731.527000", "094731.530000", "094731.532000", "094731.535000", "094731.538000", "094731.541000", "094731.544000", "094731.546000", "094731.549000", "094731.552000", "094731.555000", "094731.558000", "094731.560000", "094731.563000", "094731.566000", "094731.569000", "094731.572000", "094731.575000", "094751.521000", "094751.524000", "094751.527000", "094751.529000", "094751.532000", "094751.535000", "094751.538000", "094751.541000", "094751.544000", "094751.546000", "094751.549000", "094751.552000", "094751.555000", "094751.558000", "094751.560000", "094751.563000", "094751.566000", "094751.569000", "094751.572000", "094751.582000", "094811.520000", "094811.523000", "094811.526000", "094811.529000", "094811.531000", "094811.534000", "094811.537000", "094811.540000", "094811.543000", "094811.546000", "094811.549000", "094811.552000", "094811.554000", "094811.557000", "094811.560000", "094811.563000", "094811.566000", "094811.569000", "094811.572000", "094811.574000", "094831.520000", "094831.523000", "094831.526000", "094831.529000", "094831.531000", "094831.534000", "094831.537000", "094831.540000", "094831.543000", "094831.546000", "094831.549000", "094831.551000", "094831.554000", "094831.557000", "094831.560000", "094831.563000", "094831.566000", "094831.569000", "094831.572000", "094831.574000", "094911.520000", "094911.523000", "094911.526000", "094911.528000", "094911.531000", "094911.534000", "094911.537000", "094911.540000", "094911.543000", "094911.546000", "094911.548000", "094911.551000", "094911.554000", "094911.557000", "094911.560000", "094911.563000", "094911.565000", "094911.568000", "094911.571000", "094911.574000", "094911.577000", "094911.580000", "094911.583000", "094911.585000", "094911.588000", "094911.591000", "094911.594000", "094911.597000", "094911.599000", "094951.521000", "094951.524000", "094951.534000", "094951.537000", "094951.540000", "094951.542000", "094951.545000", "094951.548000", "094951.551000", "094951.554000", "094951.557000", "094951.559000", "094951.572000", "094951.575000", "094951.577000", "094951.580000", "094951.583000", "094951.586000", "094951.589000", "094951.592000", "094951.599000", "094951.601000", "094951.604000", "094951.607000", "094951.610000", "094951.613000", "094951.616000", "095031.522000", "095031.526000", "095031.528000", "095031.531000", "095031.534000", "095031.537000", "095031.540000", "095031.543000", "095031.545000", "095031.548000", "095031.551000", "095031.554000", "095031.557000", "095031.568000", "095031.571000", "095031.574000", "095031.577000", "095031.580000", "095031.583000", "095031.586000", "095031.588000", "095031.591000", "095031.594000", "095031.597000", "095031.600000", "095031.602000", "095111.520000", "095111.523000", "095111.526000", "095111.528000", "095111.531000", "095111.534000", "095111.537000", "095111.540000", "095111.543000", "095111.546000", "095111.548000", "095111.556000", "095111.559000", "095111.562000", "095111.565000", "095111.568000", "095111.571000", "095111.574000", "095111.576000", "095111.579000", "095111.582000", "095111.585000", "095111.588000", "095111.590000", "095111.593000", "095111.596000", "095111.599000", "095151.520000", "095151.523000", "095151.526000", "095151.537000", "095151.540000", "095151.543000", "095151.546000", "095151.549000", "095151.552000", "095151.555000", "095151.558000", "095151.560000", "095151.563000", "095151.566000", "095151.569000", "095151.572000", "095151.575000", "095151.578000", "095151.581000", "095151.583000", "095151.586000", "095151.589000", "095151.592000", "095151.595000", "095151.598000", "095151.600000", "095151.603000", "095231.521000", "095231.524000", "095231.527000", "095231.530000", "095231.533000", "095231.536000", "095231.538000", "095231.541000", "095231.544000", "095231.547000", "095231.550000", "095231.553000", "095231.556000", "095231.558000", "095231.561000", "095231.564000", "095231.567000", "095231.570000", "095231.573000", "095231.576000", "095231.579000", "095231.582000", "095231.584000", "095231.587000", "095231.590000", "095231.593000", "095231.596000", "095311.520000", "095311.523000", "095311.526000", "095311.529000", "095311.532000", "095311.535000", "095311.538000", "095311.540000", "095311.543000", "095311.546000", "095311.549000", "095311.552000", "095311.555000", "095311.557000", "095311.560000", "095311.563000", "095311.566000", "095311.569000", "095311.572000", "095311.575000", "095311.577000", "095311.580000", "095311.583000", "095311.586000", "095311.589000", "095311.592000", "095311.594000", "095351.520000", "095351.523000", "095351.526000", "095351.529000", "095351.531000", "095351.534000", "095351.537000", "095351.540000", "095351.543000", "095351.546000", "095351.548000", "095351.551000", "095351.554000", "095351.557000", "095351.560000", "095351.568000", "095351.571000", "095351.574000", "095351.576000", "095351.579000", "095351.582000", "095351.585000", "095351.588000", "095351.590000", "095351.593000", "095351.596000", "095351.599000", "095431.521000", "095431.524000", "095431.527000", "095431.530000", "095431.533000", "095431.536000", "095431.539000", "095431.542000", "095431.574000", "095431.576000", "095431.579000", "095431.582000", "095431.585000", "095431.588000", "095431.591000", "095431.593000", "095431.610000", "095431.612000", "095431.615000", "095431.618000", "095431.621000", "095431.624000", "095431.626000", "095431.629000", "095431.632000", "095431.635000", "095511.520000", "095511.523000", "095511.532000", "095511.535000", "095511.537000", "095511.540000", "095511.543000", "095511.546000", "095511.549000", "095511.552000", "095511.554000", "095511.557000", "095511.560000", "095511.563000", "095511.566000", "095511.569000", "095511.571000", "095511.574000", "095511.577000", "095511.580000", "095511.583000", "095511.586000", "095511.589000", "095511.591000", "095511.594000", "095511.597000", "095511.600000", "095551.520000", "095551.523000", "095551.526000", "095551.529000", "095551.531000", "095551.534000", "095551.537000", "095551.540000", "095551.543000", "095551.546000", "095551.549000", "095551.551000", "095551.554000", "095551.557000", "095551.560000", "095551.563000", "095551.566000", "095551.569000", "095551.571000", "095551.574000", "095551.577000", "095551.580000", "095551.583000", "095551.586000", "095551.589000", "095551.591000", "095551.594000", "095631.520000", "095631.523000", "095631.526000", "095631.529000", "095631.532000", "095631.535000", "095631.537000", "095631.540000", "095631.548000", "095631.551000", "095631.553000", "095631.556000", "095631.559000", "095631.562000", "095631.565000", "095631.568000", "095631.571000", "095631.574000", "095631.577000", "095631.579000", "095631.582000", "095631.585000", "095631.588000", "095631.591000", "095631.594000", "095631.597000", "095631.600000", "095634.926000", "095634.930000"],
