{
  "AcquisitionMatrixPE": 104,
  "AcquisitionNumber": 1,
  "AcquisitionTime": "09:21:34.042500",
  "BandwidthPerPixelPhaseEncode": 17.17,
  "BaseResolution": 104,
  "BodyPartExamined": "BRAIN",
  "CoilString": "HC1-7;NC1_2",
  "ConsistencyInfo": "N4_VE11C_LATEST_20160120",
  "ConversionSoftware": "dcm2niix",
  "ConversionSoftwareVersion": "v1.0.20190902",
  "DerivedVendorReportedEchoSpacing": 0.000560011,
  "DeviceSerialNumber": "167006",
  "DwellTime": 2.1e-06,
  "EchoTime": 0.037,
  "EchoTrainLength": 104,
  "EffectiveEchoSpacing": 0.000560011,
  "FlipAngle": 52,
  "ImageComments": "Unaliased_MB4_PE3_LB",
  "ImageOrientationPatientDICOM": [0.998325, 0.0102518, -0.0569358, -0.0223065, 0.976285, -0.215339],
  "ImageType": [
    "ORIGINAL",
    "PRIMARY",
    "M",
    "MB",
    "ND",
    "MOSAIC"
],
  "ImagingFrequency": 123.259,
  "InPlanePhaseEncodingDirectionDICOM": "COL",
  "InstitutionAddress": "Chemin_Queen-Mary_4565_Montreal_District_CA_H3W_1W5",
  "InstitutionName": "IUGM",
  "InstitutionalDepartmentName": "Department",
  "MRAcquisitionType": "2D",
  "MagneticFieldStrength": 3,
  "Manufacturer": "Siemens",
  "ManufacturersModelName": "Prisma_fit",
  "Modality": "MR",
  "MultibandAccelerationFactor": 4,
  "PartialFourier": 1,
  "PatientPosition": "HFS",
  "PercentPhaseFOV": 100,
  "PhaseEncodingDirection": "j",
  "PhaseEncodingSteps": 104,
  "PhaseResolution": 1,
  "PixelBandwidth": 2290,
  "ProcedureStepDescription": "games_shinobi",
  "ProtocolName": "func_task-shinobi_run-1",
  "PulseSequenceDetails": "%CustomerSeq%_cmrr_mbep2d_bold",
  "ReceiveCoilActiveElements": "HC1-7;NC1,2",
  "ReceiveCoilName": "HeadNeck_64",
  "ReconMatrixPE": 104,
  "RepetitionTime": 1.49,
  "SAR": 0.0288845,
  "ScanOptions": "FS",
  "ScanningSequence": "EP",
  "SequenceName": "epfid2d1_104",
  "SequenceVariant": "SK_SS",
  "SeriesDescription": "func_task-shinobi_run-1",
  "SeriesNumber": 9,
  "ShimSetting": [596, -7245, -8817, 580, -65, -246, 26, 66],
  "SliceThickness": 2,
  "SliceTiming": [0, 0.785, 0.0975, 0.8825, 0.1975, 0.98, 0.295, 1.0775, 0.3925, 1.1775, 0.49, 1.275, 0.5875, 1.3725, 0.6875, 0, 0.785, 0.0975, 0.8825, 0.1975, 0.98, 0.295, 1.0775, 0.3925, 1.1775, 0.49, 1.275, 0.5875, 1.3725, 0.6875, 0, 0.785, 0.0975, 0.8825, 0.1975, 0.98, 0.295, 1.0775, 0.3925, 1.1775, 0.49, 1.275, 0.5875, 1.3725, 0.6875, 0, 0.785, 0.0975, 0.8825, 0.1975, 0.98, 0.295, 1.0775, 0.3925, 1.1775, 0.49, 1.275, 0.5875, 1.3725, 0.6875],
  "SoftwareVersions": "syngo_MR_E11",
  "SpacingBetweenSlices": 2,
  "StationName": "MRC35049",
  "TaskName": "shinobi",
  "TotalReadoutTime": 0.0576811,
  "TxRefAmp": 214.972,
  "WipMemBlock": "0e8d051a-f030-4a64-a893-9c1ab588193f||Sequence: R016 ve11c/master r/e634e98; Dec 19 2017 11:00:25 by eja",
  "dcmmeta_affine": [
    [-1.9966504573822021, -0.04461300000548363, -0.10675588250160217, 107.4859390258789],
    [-0.020503520965576172, 1.9525690078735352, -0.4324970543384552, -73.5352783203125],
    [-0.11387161165475845, 0.43067824840545654, 1.9497562646865845, -42.93340301513672],
    [0.0, 0.0, 0.0, 1.0]
],
  "dcmmeta_reorient_transform": [
    [0.0, -1.0, 0.0, 103.0],
    [1.0, 0.0, 0.0, 0.0],
    [0.0, 0.0, 1.0, 0.0],
    [0.0, 0.0, 0.0, 1.0]
],
  "dcmmeta_shape": [104, 104, 60, 469],
  "dcmmeta_slice_dim": 2,
  "dcmmeta_version": 0.6,
  "global": {
    "const": {
      "AcquisitionMatrix": [104, 0, 0, 104],
      "AngioFlag": "N",
      "BitsAllocated": 16,
      "BitsStored": 16,
      "BodyPartExamined": "BRAIN",
      "Columns": 832,
      "EchoNumbers": 1,
      "EchoTime": 37.0,
      "EchoTrainLength": 104,
      "FlipAngle": 52.0,
      "HighBit": 15,
      "ImageOrientationPatient": [0.99832520527631, 0.01025176046168, -0.0569358052323, -0.0223065007028, 0.97628452771546, -0.2153391301408],
      "ImagePositionPatient": [-813.43241461448, -845.77774880073, 199.64260951165],
      "ImageType": [
        "ORIGINAL",
        "PRIMARY",
        "M",
        "MB",
        "ND",
        "MOSAIC"
],
      "ImagedNucleus": "1H",
      "ImagingFrequency": 123.258966,
      "InPlanePhaseEncodingDirection": "COL",
      "MRAcquisitionType": "2D",
      "MagneticFieldStrength": 3.0,
      "Manufacturer": "SIEMENS",
      "ManufacturerModelName": "Prisma_fit",
      "Modality": "MR",
      "NumberOfAverages": 1.0,
      "NumberOfPhaseEncodingSteps": 104,
      "PercentPhaseFieldOfView": 100.0,
      "PercentSampling": 100.0,
      "PerformedProcedureStepStartTime": "090008.191000",
      "PhotometricInterpretation": "MONOCHROME2",
      "PixelBandwidth": 2290.0,
      "PixelRepresentation": 0,
      "PixelSpacing": [2.0, 2.0],
      "ProtocolName": "func_task-shinobi_run-1",
      "RepetitionTime": 1490.0,
      "Rows": 832,
      "SAR": 0.02888452092424,
      "SamplesPerPixel": 1,
      "ScanOptions": "FS",
      "ScanningSequence": "EP",
      "SequenceName": "epfid2d1_104",
      "SequenceVariant": [
        "SK",
        "SS"
],
      "SeriesDescription": "func_task-shinobi_run-1",
      "SeriesNumber": 9,
      "SeriesTime": "092257.974000",
      "SliceLocation": -31.690319071656,
      "SliceThickness": 2.0,
      "SmallestImagePixelValue": 0,
      "SoftwareVersions": "syngo MR E11",
      "SpacingBetweenSlices": 2.0000000327228,
      "SpecificCharacterSet": "ISO_IR 100",
      "StudyID": "1",
      "StudyTime": "090008.066000",
      "TransmitCoilName": "Body",
      "VariableFlipAngleFlag": "N",
      "WindowCenterWidthExplanation": "Algo1",
      "dBdt": 0.0},
    "slices": {}
  },
  "time": {
    "samples": {
      "AcquisitionNumber": [1, 2, 3, 4, 5, 6, 7, 8, 9, 10, 11, 12, 13, 14, 15, 16, 17, 18, 19, 20, 21, 22, 23, 24, 25, 26, 27, 28, 29, 30, 31, 32, 33, 34, 35, 36, 37, 38, 39, 40, 41, 42, 43, 44, 45, 46, 47, 48, 49, 50, 51, 52, 53, 54, 55, 56, 57, 58, 59, 60, 61, 62, 63, 64, 65, 66, 67, 68, 69, 70, 71, 72, 73, 74, 75, 76, 77, 78, 79, 80, 81, 82, 83, 84, 85, 86, 87, 88, 89, 90, 91, 92, 93, 94, 95, 96, 97, 98, 99, 100, 101, 102, 103, 104, 105, 106, 107, 108, 109, 110, 111, 112, 113, 114, 115, 116, 117, 118, 119, 120, 121, 122, 123, 124, 125, 126, 127, 128, 129, 130, 131, 132, 133, 134, 135, 136, 137, 138, 139, 140, 141, 142, 143, 144, 145, 146, 147, 148, 149, 150, 151, 152, 153, 154, 155, 156, 157, 158, 159, 160, 161, 162, 163, 164, 165, 166, 167, 168, 169, 170, 171, 172, 173, 174, 175, 176, 177, 178, 179, 180, 181, 182, 183, 184, 185, 186, 187, 188, 189, 190, 191, 192, 193, 194, 195, 196, 197, 198, 199, 200, 201, 202, 203, 204, 205, 206, 207, 208, 209, 210, 211, 212, 213, 214, 215, 216, 217, 218, 219, 220, 221, 222, 223, 224, 225, 226, 227, 228, 229, 230, 231, 232, 233, 234, 235, 236, 237, 238, 239, 240, 241, 242, 243, 244, 245, 246, 247, 248, 249, 250, 251, 252, 253, 254, 255, 256, 257, 258, 259, 260, 261, 262, 263, 264, 265, 266, 267, 268, 269, 270, 271, 272, 273, 274, 275, 276, 277, 278, 279, 280, 281, 282, 283, 284, 285, 286, 287, 288, 289, 290, 291, 292, 293, 294, 295, 296, 297, 298, 299, 300, 301, 302, 303, 304, 305, 306, 307, 308, 309, 310, 311, 312, 313, 314, 315, 316, 317, 318, 319, 320, 321, 322, 323, 324, 325, 326, 327, 328, 329, 330, 331, 332, 333, 334, 335, 336, 337, 338, 339, 340, 341, 342, 343, 344, 345, 346, 347, 348, 349, 350, 351, 352, 353, 354, 355, 356, 357, 358, 359, 360, 361, 362, 363, 364, 365, 366, 367, 368, 369, 370, 371, 372, 373, 374, 375, 376, 377, 378, 379, 380, 381, 382, 383, 384, 385, 386, 387, 388, 389, 390, 391, 392, 393, 394, 395, 396, 397, 398, 399, 400, 401, 402, 403, 404, 405, 406, 407, 408, 409, 410, 411, 412, 413, 414, 415, 416, 417, 418, 419, 420, 421, 422, 423, 424, 425, 426, 427, 428, 429, 430, 431, 432, 433, 434, 435, 436, 437, 438, 439, 440, 441, 442, 443, 444, 445, 446, 447, 448, 449, 450, 451, 452, 453, 454, 455, 456, 457, 458, 459, 460, 461, 462, 463, 464, 465, 466, 467, 468, 469],
      "AcquisitionTime": ["092134.042500", "092135.532500", "092137.022500", "092138.512500", "092140.002500", "092141.492500", "092142.982500", "092144.472500", "092145.962500", "092147.452500", "092148.942500", "092150.432500", "092151.922500", "092153.412500", "092154.902500", "092156.392500", "092157.882500", "092159.372500", "092200.862500", "092202.352500", "092203.842500", "092205.332500", "092206.822500", "092208.312500", "092209.802500", "092211.292500", "092212.782500", "092214.272500", "092215.762500", "092217.252500", "092218.742500", "092220.232500", "092221.722500", "092223.212500", "092224.702500", "092226.192500", "092227.682500", "092229.172500", "092230.662500", "092232.152500", "092233.642500", "092235.132500", "092236.622500", "092238.112500", "092239.602500", "092241.092500", "092242.582500", "092244.072500", "092245.562500", "092247.052500", "092248.542500", "092250.032500", "092251.522500", "092253.012500", "092254.502500", "092255.992500", "092257.482500", "092258.972500", "092300.462500", "092301.952500", "092303.442500", "092304.932500", "092306.422500", "092307.912500", "092309.402500", "092310.892500", "092312.382500", "092313.872500", "092315.362500", "092316.852500", "092318.342500", "092319.832500", "092321.322500", "092322.812500", "092324.302500", "092325.792500", "092327.282500", "092328.772500", "092330.262500", "092331.752500", "092333.242500", "092334.732500", "092336.222500", "092337.712500", "092339.202500", "092340.692500", "092342.182500", "092343.672500", "092345.162500", "092346.652500", "092348.142500", "092349.632500", "092351.122500", "092352.612500", "092354.102500", "092355.592500", "092357.082500", "092358.572500", "092400.062500", "092401.552500", "092403.042500", "092404.532500", "092406.022500", "092407.512500", "092409.002500", "092410.492500", "092411.982500", "092413.472500", "092414.962500", "092416.452500", "092417.942500", "092419.432500", "092420.922500", "092422.412500", "092423.902500", "092425.392500", "092426.882500", "092428.372500", "092429.862500", "092431.352500", "092432.842500", "092434.332500", "092435.822500", "092437.312500", "092438.802500", "092440.292500", "092441.782500", "092443.272500", "092444.762500", "092446.252500", "092447.742500", "092449.232500", "092450.722500", "092452.212500", "092453.702500", "092455.192500", "092456.682500", "092458.172500", "092459.662500", "092501.152500", "092502.642500", "092504.132500", "092505.622500", "092507.112500", "092508.602500", "092510.092500", "092511.582500", "092513.072500", "092514.562500", "092516.052500", "092517.542500", "092519.032500", "092520.522500", "092522.012500", "092523.502500", "092524.992500", "092526.482500", "092527.972500", "092529.462500", "092530.952500", "092532.442500", "092533.932500", "092535.422500", "092536.912500", "092538.402500", "092539.892500", "092541.382500", "092542.872500", "092544.362500", "092545.852500", "092547.342500", "092548.832500", "092550.322500", "092551.812500", "092553.302500", "092554.792500", "092556.282500", "092557.772500", "092559.262500", "092600.752500", "092602.242500", "092603.732500", "092605.222500", "092606.712500", "092608.202500", "092609.692500", "092611.182500", "092612.672500", "092614.162500", "092615.652500", "092617.142500", "092618.632500", "092620.122500", "092621.612500", "092623.102500", "092624.592500", "092626.082500", "092627.572500", "092629.062500", "092630.552500", "092632.042500", "092633.532500", "092635.022500", "092636.512500", "092638.002500", "092639.492500", "092640.982500", "092642.472500", "092643.962500", "092645.452500", "092646.942500", "092648.432500", "092649.922500", "092651.412500", "092652.902500", "092654.392500", "092655.882500", "092657.372500", "092658.862500", "092700.352500", "092701.842500", "092703.332500", "092704.822500", "092706.312500", "092707.802500", "092709.292500", "092710.782500", "092712.272500", "092713.762500", "092715.252500", "092716.742500", "092718.232500", "092719.722500", "092721.212500", "092722.702500", "092724.192500", "092725.682500", "092727.172500", "092728.662500", "092730.152500", "092731.642500", "092733.132500", "092734.622500", "092736.112500", "092737.602500", "092739.092500", "092740.582500", "092742.072500", "092743.562500", "092745.052500", "092746.542500", "092748.032500", "092749.522500", "092751.012500", "092752.502500", "092753.992500", "092755.482500", "092756.972500", "092758.462500", "092759.952500", "092801.442500", "092802.932500", "092804.422500", "092805.912500", "092807.402500", "092808.892500", "092810.382500", "092811.872500", "092813.362500", "092814.852500", "092816.342500", "092817.832500", "092819.322500", "092820.812500", "092822.302500", "092823.792500", "092825.282500", "092826.772500", "092828.262500", "092829.752500", "092831.242500", "092832.732500", "092834.222500", "092835.712500", "092837.202500", "092838.692500", "092840.182500", "092841.672500", "092843.162500", "092844.652500", "092846.142500", "092847.632500", "092849.122500", "092850.612500", "092852.102500", "092853.592500", "092855.082500", "092856.572500", "092858.062500", "092859.552500", "092901.042500", "092902.532500", "092904.022500", "092905.512500", "092907.002500", "092908.492500", "092909.982500", "092911.472500", "092912.962500", "092914.452500", "092915.942500", "092917.432500", "092918.922500", "092920.412500", "092921.902500", "092923.392500", "092924.882500", "092926.372500", "092927.862500", "092929.352500", "092930.842500", "092932.332500", "092933.822500", "092935.312500", "092936.802500", "092938.292500", "092939.782500", "092941.272500", "092942.762500", "092944.252500", "092945.742500", "092947.232500", "092948.722500", "092950.212500", "092951.702500", "092953.192500", "092954.682500", "092956.172500", "092957.662500", "092959.152500", "093000.642500", "093002.132500", "093003.622500", "093005.112500", "093006.602500", "093008.092500", "093009.582500", "093011.072500", "093012.562500", "093014.052500", "093015.542500", "093017.032500", "093018.522500", "093020.012500", "093021.502500", "093022.992500", "093024.482500", "093025.972500", "093027.462500", "093028.952500", "093030.442500", "093031.932500", "093033.422500", "093034.912500", "093036.402500", "093037.892500", "093039.382500", "093040.872500", "093042.362500", "093043.852500", "093045.342500", "093046.832500", "093048.322500", "093049.812500", "093051.302500", "093052.792500", "093054.282500", "093055.772500", "093057.262500", "093058.752500", "093100.242500", "093101.732500", "093103.222500", "093104.712500", "093106.202500", "093107.692500", "093109.182500", "093110.672500", "093112.162500", "093113.652500", "093115.142500", "093116.632500", "093118.122500", "093119.612500", "093121.102500", "093122.592500", "093124.082500", "093125.572500", "093127.062500", "093128.552500", "093130.042500", "093131.532500", "093133.022500", "093134.512500", "093136.002500", "093137.492500", "093138.982500", "093140.472500", "093141.962500", "093143.452500", "093144.942500", "093146.432500", "093147.922500", "093149.412500", "093150.902500", "093152.392500", "093153.882500", "093155.372500", "093156.862500", "093158.352500", "093159.842500", "093201.332500", "093202.822500", "093204.312500", "093205.802500", "093207.292500", "093208.782500", "093210.272500", "093211.762500", "093213.252500", "093214.742500", "093216.232500", "093217.722500", "093219.212500", "093220.702500", "093222.192500", "093223.682500", "093225.172500", "093226.662500", "093228.152500", "093229.642500", "093231.132500", "093232.622500", "093234.112500", "093235.602500", "093237.092500", "093238.582500", "093240.072500", "093241.562500", "093243.052500", "093244.542500", "093246.032500", "093247.522500", "093249.012500", "093250.502500", "093251.992500", "093253.482500", "093254.972500", "093256.462500", "093257.952500", "093259.442500", "093300.932500", "093302.422500", "093303.912500", "093305.402500", "093306.892500", "093308.382500", "093309.872500", "093311.362500"],
      "ContentTime": ["092257.976000", "092257.980000", "092257.982000", "092257.985000", "092257.988000", "092257.991000", "092257.994000", "092257.997000", "092258.000000", "092258.003000", "092258.006000", "092258.009000", "092258.012000", "092258.015000", "092258.018000", "092258.020000", "092258.023000", "092258.026000", "092258.029000", "092258.032000", "092258.035000", "092258.037000", "092258.040000", "092258.043000", "092258.046000", "092258.049000", "092258.052000", "092258.054000", "092258.057000", "092317.946000", "092317.949000", "092317.952000", "092317.955000", "092317.957000", "092317.960000", "092317.963000", "092317.966000", "092317.969000", "092317.971000", "092317.974000", "092317.977000", "092317.980000", "092317.983000", "092317.986000", "092317.988000", "092317.991000", "092318.000000", "092318.003000", "092318.006000", "092337.947000", "092337.950000", "092337.953000", "092337.955000", "092337.958000", "092337.961000", "092337.964000", "092337.967000", "092337.970000", "092337.973000", "092337.975000", "092337.978000", "092337.981000", "092337.990000", "092337.993000", "092337.995000", "092337.998000", "092338.001000", "092338.004000", "092338.007000", "092357.946000", "092357.949000", "092357.952000", "092357.954000", "092357.957000", "092357.960000", "092357.963000", "092357.966000", "092357.969000", "092357.971000", "092357.974000", "092357.977000", "092357.980000", "092357.983000", "092357.986000", "092357.993000", "092357.996000", "092358.000000", "092358.003000", "092358.006000", "092358.009000", "092437.946000", "092437.949000", "092437.952000", "092437.955000", "092437.957000", "092437.969000", "092437.972000", "092437.975000", "092437.978000", "092437.981000", "092437.983000", "092437.986000", "092437.989000", "092437.992000", "092437.995000", "092437.998000", "092438.000000", "092438.003000", "092438.006000", "092438.009000", "092438.012000", "092438.015000", "092438.017000", "092438.020000", "092438.023000", "092438.026000", "092438.029000", "092438.032000", "092438.034000", "092438.037000", "092438.040000", "092438.043000", "092517.946000", "092517.949000", "092517.952000", "092517.954000", "092517.957000", "092517.960000", "092517.963000", "092517.966000", "092517.969000", "092517.971000", "092517.974000", "092517.977000", "092517.981000", "092517.984000", "092517.987000", "092517.989000", "092517.992000", "092517.995000", "092517.998000", "092518.002000", "092518.014000", "092518.017000", "092518.020000", "092518.023000", "092518.026000", "092518.029000", "092518.031000", "092557.947000", "092557.950000", "092557.953000", "092557.955000", "092557.958000", "092557.969000", "092557.972000", "092557.975000", "092557.981000", "092557.984000", "092557.987000", "092557.990000", "092557.993000", "092557.995000", "092558.002000", "092558.004000", "092558.007000", "092558.010000", "092558.013000", "092558.016000", "092558.019000", "092558.022000", "092558.025000", "092558.027000", "092558.030000", "092558.033000", "092558.036000", "092637.946000", "092637.949000", "092637.952000", "092637.955000", "092637.958000", "092637.960000", "092637.963000", "092637.966000", "092637.969000", "092637.972000", "092637.975000", "092637.977000", "092637.980000", "092637.983000", "092637.986000", "092637.989000", "092637.992000", "092637.995000", "092637.998000", "092638.000000", "092638.003000", "092638.006000", "092638.009000", "092638.012000", "092638.015000", "092638.018000", "092638.021000", "092717.946000", "092717.949000", "092717.952000", "092717.955000", "092717.958000", "092717.960000", "092717.963000", "092717.966000", "092717.969000", "092717.972000", "092717.975000", "092717.978000", "092717.980000", "092717.983000", "092717.986000", "092717.989000", "092717.992000", "092717.995000", "092717.998000", "092718.001000", "092718.004000", "092718.007000", "092718.010000", "092718.013000", "092718.016000", "092718.018000", "092718.021000", "092757.946000", "092757.949000", "092757.952000", "092757.955000", "092757.958000", "092757.961000", "092757.963000", "092757.966000", "092757.969000", "092757.972000", "092757.975000", "092757.978000", "092757.981000", "092757.983000", "092757.986000", "092757.989000", "092757.992000", "092757.995000", "092757.998000", "092758.002000", "092758.004000", "092758.007000", "092758.010000", "092758.013000", "092758.016000", "092758.019000", "092758.021000", "092837.946000", "092837.949000", "092837.952000", "092837.955000", "092837.958000", "092837.960000", "092837.963000", "092837.966000", "092837.969000", "092837.972000", "092837.975000", "092837.978000", "092837.980000", "092837.983000", "092837.986000", "092837.989000", "092837.992000", "092837.995000", "092837.998000", "092838.002000", "092838.005000", "092838.008000", "092838.011000", "092838.014000", "092838.016000", "092838.019000", "092917.946000", "092917.949000", "092917.952000", "092917.955000", "092917.957000", "092917.960000", "092917.963000", "092917.966000", "092917.969000", "092917.972000", "092917.974000", "092917.977000", "092917.980000", "092917.983000", "092917.986000", "092917.989000", "092917.991000", "092917.994000", "092917.997000", "092918.001000", "092918.004000", "092918.007000", "092918.009000", "092918.012000", "092918.015000", "092918.018000", "092918.021000", "092957.946000", "092957.949000", "092957.952000", "092957.963000", "092957.966000", "092957.969000", "092957.972000", "092957.974000", "092957.977000", "092957.980000", "092957.983000", "092957.986000", "092957.989000", "092957.991000", "092957.994000", "092957.997000", "092958.001000", "092958.004000", "092958.007000", "092958.010000", "092958.013000", "092958.016000", "092958.019000", "092958.021000", "092958.024000", "092958.027000", "092958.030000", "093037.947000", "093037.950000", "093037.953000", "093037.956000", "093037.959000", "093037.961000", "093037.964000", "093037.967000", "093037.970000", "093037.973000", "093037.976000", "093037.984000", "093037.987000", "093037.990000", "093037.993000", "093037.996000", "093037.999000", "093038.002000", "093038.004000", "093038.007000", "093038.010000", "093038.013000", "093038.016000", "093038.019000", "093038.022000", "093038.024000", "093038.027000", "093117.946000", "093117.949000", "093117.952000", "093117.955000", "093117.958000", "093117.966000", "093117.969000", "093117.972000", "093117.975000", "093117.977000", "093117.980000", "093117.983000", "093117.986000", "093117.989000", "093117.992000", "093117.995000", "093117.997000", "093118.001000", "093118.004000", "093118.007000", "093118.010000", "093118.013000", "093118.015000", "093118.018000", "093118.021000", "093118.032000", "093118.035000", "093157.946000", "093157.949000", "093157.952000", "093157.955000", "093157.957000", "093157.960000", "093157.963000", "093157.966000", "093157.969000", "093157.972000", "093157.974000", "093157.977000", "093157.980000", "093157.983000", "093157.986000", "093157.989000", "093157.992000", "093157.994000", "093157.997000", "093158.001000", "093158.004000", "093158.007000", "093158.010000", "093158.013000", "093158.016000", "093158.018000", "093158.021000", "093237.946000", "093237.949000", "093237.952000", "093237.955000", "093237.958000", "093237.961000", "093237.964000", "093237.967000", "093237.969000", "093237.972000", "093237.975000", "093237.978000", "093237.981000", "093237.984000", "093237.987000", "093237.991000", "093237.995000", "093238.000000", "093238.003000", "093238.006000", "093238.010000", "093238.013000", "093238.016000", "093238.019000", "093238.022000", "093238.025000", "093313.883000", "093313.887000", "093313.890000", "093313.892000", "093313.895000", "093313.898000", "093313.901000", "093313.904000", "093313.907000", "093313.910000", "093313.913000", "093313.916000", "093313.919000", "093313.921000", "093313.924000", "093313.927000", "093313.930000", "093313.933000", "093313.946000", "093313.949000", "093313.952000", "093313.955000", "093313.958000", "093313.961000", "093313.963000"],
