{
  "AcquisitionMatrixPE": 104,
  "AcquisitionNumber": 1,
  "AcquisitionTime": "16:06:46.915000",
  "BandwidthPerPixelPhaseEncode": 17.17,
  "BaseResolution": 104,
  "BodyPartExamined": "BRAIN",
  "CoilString": "HC1-7;NC1_2",
  "ConsistencyInfo": "N4_VE11C_LATEST_20160120",
  "ConversionSoftware": "dcm2niix",
  "ConversionSoftwareVersion": "v1.0.20190902",
  "DerivedVendorReportedEchoSpacing": 0.000560011,
  "DeviceSerialNumber": "167006",
  "DwellTime": 2.1e-06,
  "EchoTime": 0.037,
  "EchoTrainLength": 104,
  "EffectiveEchoSpacing": 0.000560011,
  "FlipAngle": 52,
  "ImageComments": "Unaliased_MB4_PE3_LB",
  "ImageOrientationPatientDICOM": [0.998616, -0.0460012, 0.0254882, 0.0521605, 0.928204, -0.368398],
  "ImageType": [
    "ORIGINAL",
    "PRIMARY",
    "M",
    "MB",
    "ND",
    "MOSAIC"
],
  "ImagingFrequency": 123.259,
  "InPlanePhaseEncodingDirectionDICOM": "COL",
  "InstitutionAddress": "Chemin_Queen-Mary_4565_Montreal_District_CA_H3W_1W5",
  "InstitutionName": "IUGM",
  "InstitutionalDepartmentName": "Department",
  "MRAcquisitionType": "2D",
  "MagneticFieldStrength": 3,
  "Manufacturer": "Siemens",
  "ManufacturersModelName": "Prisma_fit",
  "Modality": "MR",
  "MultibandAccelerationFactor": 4,
  "PartialFourier": 1,
  "PatientPosition": "HFS",
  "PercentPhaseFOV": 100,
  "PhaseEncodingDirection": "j",
  "PhaseEncodingSteps": 104,
  "PhaseResolution": 1,
  "PixelBandwidth": 2290,
  "ProcedureStepDescription": "games_shinobi",
  "ProtocolName": "func_task-shinobi_run-4",
  "PulseSequenceDetails": "%CustomerSeq%_cmrr_mbep2d_bold",
  "ReceiveCoilActiveElements": "HC1-7;NC1,2",
  "ReceiveCoilName": "HeadNeck_64",
  "ReconMatrixPE": 104,
  "RepetitionTime": 1.49,
  "SAR": 0.0302712,
  "ScanOptions": "FS",
  "ScanningSequence": "EP",
  "SequenceName": "epfid2d1_104",
  "SequenceVariant": "SK_SS",
  "SeriesDescription": "func_task-shinobi_run-4",
  "SeriesNumber": 15,
  "ShimSetting": [638, -7249, -8862, 609, 13, -229, -43, -25],
  "SliceThickness": 2,
  "SliceTiming": [0, 0.785, 0.1, 0.8825, 0.1975, 0.98, 0.295, 1.0775, 0.3925, 1.1775, 0.49, 1.275, 0.59, 1.3725, 0.6875, 0, 0.785, 0.1, 0.8825, 0.1975, 0.98, 0.295, 1.0775, 0.3925, 1.1775, 0.49, 1.275, 0.59, 1.3725, 0.6875, 0, 0.785, 0.1, 0.8825, 0.1975, 0.98, 0.295, 1.0775, 0.3925, 1.1775, 0.49, 1.275, 0.59, 1.3725, 0.6875, 0, 0.785, 0.1, 0.8825, 0.1975, 0.98, 0.295, 1.0775, 0.3925, 1.1775, 0.49, 1.275, 0.59, 1.3725, 0.6875],
  "SoftwareVersions": "syngo_MR_E11",
  "SpacingBetweenSlices": 2,
  "StationName": "MRC35049",
  "TaskName": "shinobi",
  "TotalReadoutTime": 0.0576811,
  "TxRefAmp": 219.506,
  "WipMemBlock": "248ede9d-5d89-43c6-8204-016cc8e4876a||Sequence: R016 ve11c/master r/e634e98; Dec 19 2017 11:00:25 by eja",
  "dcmmeta_affine": [
    [-1.9972323179244995, 0.10432101786136627, 0.013423088937997818, 100.8430404663086],
    [0.09200245887041092, 1.856407880783081, -0.7384344935417175, -67.29235076904297],
    [0.05097648501396179, 0.73679518699646, 1.8586376905441284, -78.10784912109375],
    [0.0, 0.0, 0.0, 1.0]
],
  "dcmmeta_reorient_transform": [
    [0.0, -1.0, 0.0, 103.0],
    [1.0, 0.0, 0.0, 0.0],
    [0.0, 0.0, 1.0, 0.0],
    [0.0, 0.0, 0.0, 1.0]
],
  "dcmmeta_shape": [104, 104, 60, 433],
  "dcmmeta_slice_dim": 2,
  "dcmmeta_version": 0.6,
  "global": {
    "const": {
      "AcquisitionMatrix": [104, 0, 0, 104],
      "AngioFlag": "N",
      "BitsAllocated": 16,
      "BitsStored": 16,
      "BodyPartExamined": "BRAIN",
      "Columns": 832,
      "EchoNumbers": 1,
      "EchoTime": 37.0,
      "EchoTrainLength": 104,
      "FlipAngle": 52.0,
      "HighBit": 15,
      "ImageOrientationPatient": [0.99861616075517, -0.0460012282738, 0.02548824191479, 0.05216050850815, 0.92820391229284, -0.3683975821805],
      "ImagePositionPatient": [-876.55351728968, -766.16121220542, 247.42005504881],
      "ImageType": [
        "ORIGINAL",
        "PRIMARY",
        "M",
        "MB",
        "ND",
        "MOSAIC"
],
      "ImagedNucleus": "1H",
      "ImagingFrequency": 123.259047,
      "InPlanePhaseEncodingDirection": "COL",
      "MRAcquisitionType": "2D",
      "MagneticFieldStrength": 3.0,
      "Manufacturer": "SIEMENS",
      "ManufacturerModelName": "Prisma_fit",
      "Modality": "MR",
      "NumberOfAverages": 1.0,
      "NumberOfPhaseEncodingSteps": 104,
      "PercentPhaseFieldOfView": 100.0,
      "PercentSampling": 100.0,
      "PerformedProcedureStepStartTime": "144812.298000",
      "PhotometricInterpretation": "MONOCHROME2",
      "PixelBandwidth": 2290.0,
      "PixelRepresentation": 0,
      "PixelSpacing": [2.0, 2.0],
      "ProtocolName": "func_task-shinobi_run-4",
      "RepetitionTime": 1490.0,
      "Rows": 832,
      "SAR": 0.03027120625608,
      "SamplesPerPixel": 1,
      "ScanOptions": "FS",
      "ScanningSequence": "EP",
      "SequenceName": "epfid2d1_104",
      "SequenceVariant": [
        "SK",
        "SS"
],
      "SeriesDescription": "func_task-shinobi_run-4",
      "SeriesNumber": 15,
      "SeriesTime": "160801.435000",
      "SliceLocation": -47.064787410407,
      "SliceThickness": 2.0,
      "SmallestImagePixelValue": 0,
      "SoftwareVersions": "syngo MR E11",
      "SpacingBetweenSlices": 1.9999999263101,
      "SpecificCharacterSet": "ISO_IR 100",
      "StudyID": "1",
      "StudyTime": "144812.235000",
      "TransmitCoilName": "Body",
      "VariableFlipAngleFlag": "N",
      "WindowCenterWidthExplanation": "Algo1",
      "dBdt": 0.0},
    "slices": {}
  },
  "time": {
    "samples": {
      "AcquisitionNumber": [1, 2, 3, 4, 5, 6, 7, 8, 9, 10, 11, 12, 13, 14, 15, 16, 17, 18, 19, 20, 21, 22, 23, 24, 25, 26, 27, 28, 29, 30, 31, 32, 33, 34, 35, 36, 37, 38, 39, 40, 41, 42, 43, 44, 45, 46, 47, 48, 49, 50, 51, 52, 53, 54, 55, 56, 57, 58, 59, 60, 61, 62, 63, 64, 65, 66, 67, 68, 69, 70, 71, 72, 73, 74, 75, 76, 77, 78, 79, 80, 81, 82, 83, 84, 85, 86, 87, 88, 89, 90, 91, 92, 93, 94, 95, 96, 97, 98, 99, 100, 101, 102, 103, 104, 105, 106, 107, 108, 109, 110, 111, 112, 113, 114, 115, 116, 117, 118, 119, 120, 121, 122, 123, 124, 125, 126, 127, 128, 129, 130, 131, 132, 133, 134, 135, 136, 137, 138, 139, 140, 141, 142, 143, 144, 145, 146, 147, 148, 149, 150, 151, 152, 153, 154, 155, 156, 157, 158, 159, 160, 161, 162, 163, 164, 165, 166, 167, 168, 169, 170, 171, 172, 173, 174, 175, 176, 177, 178, 179, 180, 181, 182, 183, 184, 185, 186, 187, 188, 189, 190, 191, 192, 193, 194, 195, 196, 197, 198, 199, 200, 201, 202, 203, 204, 205, 206, 207, 208, 209, 210, 211, 212, 213, 214, 215, 216, 217, 218, 219, 220, 221, 222, 223, 224, 225, 226, 227, 228, 229, 230, 231, 232, 233, 234, 235, 236, 237, 238, 239, 240, 241, 242, 243, 244, 245, 246, 247, 248, 249, 250, 251, 252, 253, 254, 255, 256, 257, 258, 259, 260, 261, 262, 263, 264, 265, 266, 267, 268, 269, 270, 271, 272, 273, 274, 275, 276, 277, 278, 279, 280, 281, 282, 283, 284, 285, 286, 287, 288, 289, 290, 291, 292, 293, 294, 295, 296, 297, 298, 299, 300, 301, 302, 303, 304, 305, 306, 307, 308, 309, 310, 311, 312, 313, 314, 315, 316, 317, 318, 319, 320, 321, 322, 323, 324, 325, 326, 327, 328, 329, 330, 331, 332, 333, 334, 335, 336, 337, 338, 339, 340, 341, 342, 343, 344, 345, 346, 347, 348, 349, 350, 351, 352, 353, 354, 355, 356, 357, 358, 359, 360, 361, 362, 363, 364, 365, 366, 367, 368, 369, 370, 371, 372, 373, 374, 375, 376, 377, 378, 379, 380, 381, 382, 383, 384, 385, 386, 387, 388, 389, 390, 391, 392, 393, 394, 395, 396, 397, 398, 399, 400, 401, 402, 403, 404, 405, 406, 407, 408, 409, 410, 411, 412, 413, 414, 415, 416, 417, 418, 419, 420, 421, 422, 423, 424, 425, 426, 427, 428, 429, 430, 431, 432, 433],
      "AcquisitionTime": ["160646.915000", "160648.405000", "160649.895000", "160651.385000", "160652.875000", "160654.365000", "160655.855000", "160657.345000", "160658.835000", "160700.325000", "160701.815000", "160703.305000", "160704.795000", "160706.285000", "160707.775000", "160709.265000", "160710.755000", "160712.245000", "160713.735000", "160715.225000", "160716.715000", "160718.205000", "160719.695000", "160721.185000", "160722.675000", "160724.165000", "160725.655000", "160727.145000", "160728.635000", "160730.125000", "160731.615000", "160733.105000", "160734.595000", "160736.085000", "160737.575000", "160739.065000", "160740.555000", "160742.045000", "160743.535000", "160745.025000", "160746.515000", "160748.005000", "160749.495000", "160750.985000", "160752.475000", "160753.965000", "160755.455000", "160756.945000", "160758.435000", "160759.925000", "160801.415000", "160802.905000", "160804.395000", "160805.885000", "160807.375000", "160808.865000", "160810.355000", "160811.845000", "160813.335000", "160814.825000", "160816.315000", "160817.805000", "160819.295000", "160820.785000", "160822.275000", "160823.765000", "160825.255000", "160826.745000", "160828.235000", "160829.725000", "160831.215000", "160832.705000", "160834.195000", "160835.685000", "160837.175000", "160838.665000", "160840.155000", "160841.645000", "160843.135000", "160844.625000", "160846.115000", "160847.605000", "160849.095000", "160850.585000", "160852.075000", "160853.565000", "160855.055000", "160856.545000", "160858.035000", "160859.525000", "160901.015000", "160902.505000", "160903.995000", "160905.485000", "160906.975000", "160908.465000", "160909.955000", "160911.445000", "160912.935000", "160914.425000", "160915.915000", "160917.405000", "160918.895000", "160920.385000", "160921.875000", "160923.365000", "160924.855000", "160926.345000", "160927.835000", "160929.325000", "160930.815000", "160932.305000", "160933.795000", "160935.285000", "160936.775000", "160938.265000", "160939.755000", "160941.245000", "160942.735000", "160944.225000", "160945.715000", "160947.205000", "160948.695000", "160950.185000", "160951.675000", "160953.165000", "160954.655000", "160956.145000", "160957.635000", "160959.125000", "161000.615000", "161002.105000", "161003.595000", "161005.085000", "161006.575000", "161008.065000", "161009.555000", "161011.045000", "161012.535000", "161014.025000", "161015.515000", "161017.005000", "161018.495000", "161019.985000", "161021.475000", "161022.965000", "161024.455000", "161025.945000", "161027.435000", "161028.925000", "161030.415000", "161031.905000", "161033.395000", "161034.885000", "161036.375000", "161037.865000", "161039.355000", "161040.845000", "161042.335000", "161043.825000", "161045.315000", "161046.805000", "161048.295000", "161049.785000", "161051.275000", "161052.765000", "161054.255000", "161055.745000", "161057.235000", "161058.725000", "161100.215000", "161101.705000", "161103.195000", "161104.685000", "161106.175000", "161107.665000", "161109.155000", "161110.645000", "161112.135000", "161113.625000", "161115.115000", "161116.605000", "161118.095000", "161119.585000", "161121.075000", "161122.565000", "161124.055000", "161125.545000", "161127.035000", "161128.525000", "161130.015000", "161131.505000", "161132.995000", "161134.485000", "161135.975000", "161137.465000", "161138.955000", "161140.445000", "161141.935000", "161143.425000", "161144.915000", "161146.405000", "161147.895000", "161149.385000", "161150.875000", "161152.365000", "161153.855000", "161155.345000", "161156.835000", "161158.325000", "161159.815000", "161201.305000", "161202.795000", "161204.285000", "161205.775000", "161207.265000", "161208.755000", "161210.245000", "161211.735000", "161213.225000", "161214.715000", "161216.205000", "161217.695000", "161219.185000", "161220.675000", "161222.165000", "161223.655000", "161225.145000", "161226.635000", "161228.125000", "161229.615000", "161231.105000", "161232.595000", "161234.085000", "161235.575000", "161237.065000", "161238.555000", "161240.045000", "161241.535000", "161243.025000", "161244.515000", "161246.005000", "161247.495000", "161248.985000", "161250.475000", "161251.965000", "161253.455000", "161254.945000", "161256.435000", "161257.925000", "161259.415000", "161300.905000", "161302.395000", "161303.885000", "161305.375000", "161306.865000", "161308.355000", "161309.845000", "161311.335000", "161312.825000", "161314.315000", "161315.805000", "161317.295000", "161318.785000", "161320.275000", "161321.765000", "161323.255000", "161324.745000", "161326.235000", "161327.725000", "161329.215000", "161330.705000", "161332.195000", "161333.685000", "161335.175000", "161336.665000", "161338.155000", "161339.645000", "161341.135000", "161342.625000", "161344.115000", "161345.605000", "161347.095000", "161348.585000", "161350.075000", "161351.565000", "161353.055000", "161354.545000", "161356.035000", "161357.525000", "161359.015000", "161400.505000", "161401.995000", "161403.485000", "161404.975000", "161406.465000", "161407.955000", "161409.445000", "161410.935000", "161412.425000", "161413.915000", "161415.405000", "161416.895000", "161418.385000", "161419.875000", "161421.365000", "161422.855000", "161424.345000", "161425.835000", "161427.325000", "161428.815000", "161430.305000", "161431.795000", "161433.285000", "161434.775000", "161436.265000", "161437.755000", "161439.245000", "161440.735000", "161442.225000", "161443.715000", "161445.205000", "161446.695000", "161448.185000", "161449.675000", "161451.165000", "161452.655000", "161454.145000", "161455.635000", "161457.125000", "161458.615000", "161500.105000", "161501.595000", "161503.085000", "161504.575000", "161506.065000", "161507.555000", "161509.045000", "161510.535000", "161512.025000", "161513.515000", "161515.005000", "161516.495000", "161517.985000", "161519.475000", "161520.965000", "161522.455000", "161523.945000", "161525.435000", "161526.925000", "161528.415000", "161529.905000", "161531.395000", "161532.885000", "161534.375000", "161535.865000", "161537.355000", "161538.845000", "161540.335000", "161541.825000", "161543.315000", "161544.805000", "161546.295000", "161547.785000", "161549.275000", "161550.765000", "161552.255000", "161553.745000", "161555.235000", "161556.725000", "161558.215000", "161559.705000", "161601.195000", "161602.685000", "161604.175000", "161605.665000", "161607.155000", "161608.645000", "161610.135000", "161611.625000", "161613.115000", "161614.605000", "161616.095000", "161617.585000", "161619.075000", "161620.565000", "161622.055000", "161623.545000", "161625.035000", "161626.525000", "161628.015000", "161629.505000", "161630.995000", "161632.485000", "161633.975000", "161635.465000", "161636.955000", "161638.445000", "161639.935000", "161641.425000", "161642.915000", "161644.405000", "161645.895000", "161647.385000", "161648.875000", "161650.365000", "161651.855000", "161653.345000", "161654.835000", "161656.325000", "161657.815000", "161659.305000", "161700.795000", "161702.285000", "161703.775000", "161705.265000", "161706.755000", "161708.245000", "161709.735000", "161711.225000", "161712.715000", "161714.205000", "161715.695000", "161717.185000", "161718.675000", "161720.165000", "161721.655000", "161723.145000", "161724.635000", "161726.125000", "161727.615000", "161729.105000", "161730.595000"],
      "ContentTime": ["160801.437000", "160801.441000", "160801.444000", "160801.446000", "160801.449000", "160801.452000", "160801.459000", "160801.462000", "160801.489000", "160801.491000", "160801.501000", "160801.504000", "160801.507000", "160801.510000", "160801.515000", "160801.518000", "160801.520000", "160801.523000", "160801.526000", "160801.529000", "160821.410000", "160821.413000", "160821.416000", "160821.419000", "160821.421000", "160821.424000", "160821.427000", "160821.430000", "160821.433000", "160821.436000", "160821.439000", "160821.442000", "160821.445000", "160821.449000", "160821.452000", "160821.456000", "160821.459000", "160821.462000", "160821.465000", "160821.468000", "160841.411000", "160841.414000", "160841.417000", "160841.420000", "160841.422000", "160841.425000", "160841.428000", "160841.431000", "160841.434000", "160841.437000", "160841.439000", "160841.442000", "160841.445000", "160841.448000", "160841.451000", "160841.454000", "160841.457000", "160841.460000", "160841.462000", "160841.465000", "160841.468000", "160901.410000", "160901.413000", "160901.416000", "160901.419000", "160901.422000", "160901.424000", "160901.427000", "160901.430000", "160901.433000", "160901.436000", "160901.439000", "160901.441000", "160901.444000", "160901.447000", "160901.451000", "160901.453000", "160901.456000", "160901.459000", "160901.462000", "160901.465000", "160921.410000", "160921.413000", "160921.416000", "160921.419000", "160921.422000", "160921.425000", "160921.427000", "160921.430000", "160921.433000", "160921.436000", "160921.439000", "160921.442000", "160921.445000", "160921.448000", "160921.451000", "160921.454000", "160921.456000", "160921.459000", "160921.462000", "160921.465000", "161001.410000", "161001.413000", "161001.416000", "161001.419000", "161001.422000", "161001.425000", "161001.427000", "161001.430000", "161001.433000", "161001.436000", "161001.439000", "161001.441000", "161001.444000", "161001.447000", "161001.450000", "161001.453000", "161001.456000", "161001.459000", "161001.461000", "161001.464000", "161001.467000", "161001.470000", "161001.473000", "161001.476000", "161001.479000", "161001.481000", "161001.484000", "161001.493000", "161001.496000", "161041.410000", "161041.413000", "161041.416000", "161041.419000", "161041.422000", "161041.424000", "161041.427000", "161041.430000", "161041.433000", "161041.436000", "161041.439000", "161041.442000", "161041.444000", "161041.447000", "161041.450000", "161041.453000", "161041.456000", "161041.459000", "161041.462000", "161041.465000", "161041.468000", "161041.471000", "161041.475000", "161041.478000", "161041.482000", "161041.485000", "161121.410000", "161121.413000", "161121.416000", "161121.419000", "161121.422000", "161121.425000", "161121.428000", "161121.431000", "161121.433000", "161121.436000", "161121.439000", "161121.442000", "161121.445000", "161121.448000", "161121.451000", "161121.454000", "161121.456000", "161121.460000", "161121.462000", "161121.465000", "161121.468000", "161121.471000", "161121.474000", "161121.477000", "161121.480000", "161121.483000", "161121.485000", "161201.410000", "161201.413000", "161201.416000", "161201.419000", "161201.422000", "161201.425000", "161201.428000", "161201.430000", "161201.433000", "161201.436000", "161201.439000", "161201.442000", "161201.445000", "161201.447000", "161201.450000", "161201.453000", "161201.456000", "161201.459000", "161201.462000", "161201.465000", "161201.468000", "161201.470000", "161201.473000", "161201.476000", "161201.479000", "161201.482000", "161201.485000", "161241.410000", "161241.413000", "161241.416000", "161241.419000", "161241.422000", "161241.424000", "161241.427000", "161241.430000", "161241.433000", "161241.436000", "161241.439000", "161241.442000", "161241.444000", "161241.447000", "161241.450000", "161241.453000", "161241.456000", "161241.459000", "161241.462000", "161241.465000", "161241.467000", "161241.471000", "161241.473000", "161241.476000", "161241.479000", "161241.482000", "161241.485000", "161321.411000", "161321.414000", "161321.424000", "161321.427000", "161321.430000", "161321.433000", "161321.436000", "161321.439000", "161321.442000", "161321.445000", "161321.447000", "161321.450000", "161321.453000", "161321.456000", "161321.459000", "161321.462000", "161321.465000", "161321.468000", "161321.470000", "161321.473000", "161321.476000", "161321.479000", "161321.482000", "161321.485000", "161321.488000", "161321.491000", "161321.493000", "161401.410000", "161401.413000", "161401.416000", "161401.419000", "161401.422000", "161401.424000", "161401.427000", "161401.430000", "161401.433000", "161401.436000", "161401.439000", "161401.442000", "161401.444000", "161401.447000", "161401.450000", "161401.453000", "161401.456000", "161401.474000", "161401.477000", "161401.480000", "161401.483000", "161401.485000", "161401.488000", "161401.491000", "161401.494000", "161401.497000", "161401.500000", "161441.410000", "161441.413000", "161441.416000", "161441.419000", "161441.422000", "161441.425000", "161441.427000", "161441.430000", "161441.433000", "161441.436000", "161441.439000", "161441.442000", "161441.445000", "161441.447000", "161441.450000", "161441.453000", "161441.456000", "161441.459000", "161441.462000", "161441.465000", "161441.467000", "161441.470000", "161441.473000", "161441.476000", "161441.479000", "161441.482000", "161441.485000", "161521.410000", "161521.413000", "161521.416000", "161521.419000", "161521.422000", "161521.424000", "161521.427000", "161521.430000", "161521.433000", "161521.436000", "161521.439000", "161521.442000", "161521.445000", "161521.447000", "161521.450000", "161521.453000", "161521.456000", "161521.459000", "161521.462000", "161521.465000", "161521.468000", "161521.471000", "161521.474000", "161521.477000", "161521.480000", "161521.483000", "161601.410000", "161601.413000", "161601.416000", "161601.419000", "161601.422000", "161601.424000", "161601.427000", "161601.430000", "161601.433000", "161601.436000", "161601.439000", "161601.442000", "161601.445000", "161601.447000", "161601.450000", "161601.453000", "161601.456000", "161601.459000", "161601.462000", "161601.465000", "161601.468000", "161601.471000", "161601.473000", "161601.476000", "161601.479000", "161601.482000", "161601.485000", "161641.410000", "161641.413000", "161641.421000", "161641.424000", "161641.427000", "161641.430000", "161641.433000", "161641.435000", "161641.438000", "161641.441000", "161641.444000", "161641.447000", "161641.450000", "161641.453000", "161641.456000", "161641.458000", "161641.461000", "161641.464000", "161641.467000", "161641.470000", "161641.473000", "161641.476000", "161641.479000", "161641.482000", "161641.484000", "161641.487000", "161641.491000", "161721.410000", "161721.413000", "161721.416000", "161721.419000", "161721.423000", "161721.427000", "161721.430000", "161721.433000", "161721.436000", "161721.439000", "161721.442000", "161721.445000", "161721.448000", "161721.451000", "161721.453000", "161721.456000", "161721.459000", "161721.462000", "161721.465000", "161721.468000", "161721.471000", "161721.474000", "161721.477000", "161721.479000", "161721.482000", "161721.485000", "161721.488000", "161732.846000", "161732.850000", "161732.853000", "161732.856000", "161732.859000", "161732.862000", "161732.865000", "161732.868000"],
      "InstanceCreationTime": ["160801.437000", "160801.441000", "160801.444000", "160801.446000", "160801.449000", "160801.452000", "160801.459000", "160801.462000", "160801.489000", "160801.491000", "160801.501000", "160801.504000", "160801.507000", "160801.510000", "160801.515000", "160801.518000", "160801.520000", "160801.523000", "160801.526000", "160801.529000", "160821.410000", "160821.413000", "160821.416000", "160821.419000", "160821.421000", "160821.424000", "160821.427000", "160821.430000", "160821.433000", "160821.436000", "160821.439000", "160821.442000", "160821.445000", "160821.449000", "160821.452000", "160821.456000", "160821.459000", "160821.462000", "160821.465000", "160821.468000", "160841.411000", "160841.414000", "160841.417000", "160841.420000", "160841.422000", "160841.425000", "160841.428000", "160841.431000", "160841.434000", "160841.437000", "160841.439000", "160841.442000", "160841.445000", "160841.448000", "160841.451000", "160841.454000", "160841.457000", "160841.460000", "160841.462000", "160841.465000", "160841.468000", "160901.410000", "160901.413000", "160901.416000", "160901.419000", "160901.422000", "160901.424000", "160901.427000", "160901.430000", "160901.433000", "160901.436000", "160901.439000", "160901.441000", "160901.444000", "160901.447000", "160901.451000", "160901.453000", "160901.456000", "160901.459000", "160901.462000", "160901.465000", "160921.410000", "160921.413000", "160921.416000", "160921.419000", "160921.422000", "160921.425000", "160921.427000", "160921.430000", "160921.433000", "160921.436000", "160921.439000", "160921.442000", "160921.445000", "160921.448000", "160921.451000", "160921.454000", "160921.456000", "160921.459000", "160921.462000", "160921.465000", "161001.410000", "161001.413000", "161001.416000", "161001.419000", "161001.422000", "161001.425000", "161001.427000", "161001.430000", "161001.433000", "161001.436000", "161001.439000", "161001.441000", "161001.444000", "161001.447000", "161001.450000", "161001.453000", "161001.456000", "161001.459000", "161001.461000", "161001.464000", "161001.467000", "161001.470000", "161001.473000", "161001.476000", "161001.479000", "161001.481000", "161001.484000", "161001.493000", "161001.496000", "161041.410000", "161041.413000", "161041.416000", "161041.419000", "161041.422000", "161041.424000", "161041.427000", "161041.430000", "161041.433000", "161041.436000", "161041.439000", "161041.442000", "161041.444000", "161041.447000", "161041.450000", "161041.453000", "161041.456000", "161041.459000", "161041.462000", "161041.465000", "161041.468000", "161041.471000", "161041.475000", "161041.478000", "161041.482000", "161041.485000", "161121.410000", "161121.413000", "161121.416000", "161121.419000", "161121.422000", "161121.425000", "161121.428000", "161121.431000", "161121.433000", "161121.436000", "161121.439000", "161121.442000", "161121.445000", "161121.448000", "161121.451000", "161121.454000", "161121.456000", "161121.460000", "161121.462000", "161121.465000", "161121.468000", "161121.471000", "161121.474000", "161121.477000", "161121.480000", "161121.483000", "161121.485000", "161201.410000", "161201.413000", "161201.416000", "161201.419000", "161201.422000", "161201.425000", "161201.428000", "161201.430000", "161201.433000", "161201.436000", "161201.439000", "161201.442000", "161201.445000", "161201.447000", "161201.450000", "161201.453000", "161201.456000", "161201.459000", "161201.462000", "161201.465000", "161201.468000", "161201.470000", "161201.473000", "161201.476000", "161201.479000", "161201.482000", "161201.485000", "161241.410000", "161241.413000", "161241.416000", "161241.419000", "161241.422000", "161241.424000", "161241.427000", "161241.430000", "161241.433000", "161241.436000", "161241.439000", "161241.442000", "161241.444000", "161241.447000", "161241.450000", "161241.453000", "161241.456000", "161241.459000", "161241.462000", "161241.465000", "161241.467000", "161241.471000", "161241.473000", "161241.476000", "161241.479000", "161241.482000", "161241.485000", "161321.411000", "161321.414000", "161321.424000", "161321.427000", "161321.430000", "161321.433000", "161321.436000", "161321.439000", "161321.442000", "161321.445000", "161321.447000", "161321.450000", "161321.453000", "161321.456000", "161321.459000", "161321.462000", "161321.465000", "161321.468000", "161321.470000", "161321.473000", "161321.476000", "161321.479000", "161321.482000", "161321.485000", "161321.488000", "161321.491000", "161321.493000", "161401.410000", "161401.413000", "161401.416000", "161401.419000", "161401.422000", "161401.424000", "161401.427000", "161401.430000", "161401.433000", "161401.436000", "161401.439000", "161401.442000", "161401.444000", "161401.447000", "161401.450000", "161401.453000", "161401.456000", "161401.474000", "161401.477000", "161401.480000", "161401.483000", "161401.485000", "161401.488000", "161401.491000", "161401.494000", "161401.497000", "161401.500000", "161441.410000", "161441.413000", "161441.416000", "161441.419000", "161441.422000", "161441.425000", "161441.427000", "161441.430000", "161441.433000", "161441.436000", "161441.439000", "161441.442000", "161441.445000", "161441.447000", "161441.450000", "161441.453000", "161441.456000", "161441.459000", "161441.462000", "161441.465000", "161441.467000", "161441.470000", "161441.473000", "161441.476000", "161441.479000", "161441.482000", "161441.485000", "161521.410000", "161521.413000", "161521.416000", "161521.419000", "161521.422000", "161521.424000", "161521.427000", "161521.430000", "161521.433000", "161521.436000", "161521.439000", "161521.442000", "161521.445000", "161521.447000", "161521.450000", "161521.453000", "161521.456000", "161521.459000", "161521.462000", "161521.465000", "161521.468000", "161521.471000", "161521.474000", "161521.477000", "161521.480000", "161521.483000", "161601.410000", "161601.413000", "161601.416000", "161601.419000", "161601.422000", "161601.424000", "161601.427000", "161601.430000", "161601.433000", "161601.436000", "161601.439000", "161601.442000", "161601.445000", "161601.447000", "161601.450000", "161601.453000", "161601.456000", "161601.459000", "161601.462000", "161601.465000", "161601.468000", "161601.471000", "161601.473000", "161601.476000", "161601.479000", "161601.482000", "161601.485000", "161641.410000", "161641.413000", "161641.421000", "161641.424000", "161641.427000", "161641.430000", "161641.433000", "161641.435000", "161641.438000", "161641.441000", "161641.444000", "161641.447000", "161641.450000", "161641.453000", "161641.456000", "161641.458000", "161641.461000", "161641.464000", "161641.467000", "161641.470000", "161641.473000", "161641.476000", "161641.479000", "161641.482000", "161641.484000", "161641.487000", "161641.491000", "161721.410000", "161721.413000", "161721.416000", "161721.419000", "161721.423000", "161721.427000", "161721.430000", "161721.433000", "161721.436000", "161721.439000", "161721.442000", "161721.445000", "161721.448000", "161721.451000", "161721.453000", "161721.456000", "161721.459000", "161721.462000", "161721.465000", "161721.468000", "161721.471000", "161721.474000", "161721.477000", "161721.479000", "161721.482000", "161721.485000", "161721.488000", "161732.846000", "161732.850000", "161732.853000", "161732.856000", "161732.859000", "161732.862000", "161732.865000", "161732.868000"],
