{
  "AcquisitionMatrixPE": 104,
  "AcquisitionNumber": 1,
  "AcquisitionTime": "15:37:24.780000",
  "BandwidthPerPixelPhaseEncode": 17.17,
  "BaseResolution": 104,
  "BodyPartExamined": "BRAIN",
  "CoilString": "HC1-7;NC1_2",
  "ConsistencyInfo": "N4_VE11C_LATEST_20160120",
  "ConversionSoftware": "dcm2niix",
  "ConversionSoftwareVersion": "v1.0.20190902",
  "DerivedVendorReportedEchoSpacing": 0.000560011,
  "DeviceSerialNumber": "167006",
  "DwellTime": 2.1e-06,
  "EchoTime": 0.037,
  "EchoTrainLength": 104,
  "EffectiveEchoSpacing": 0.000560011,
  "FlipAngle": 52,
  "ImageComments": "Unaliased_MB4_PE3_LB",
  "ImageOrientationPatientDICOM": [0.998616, -0.0460012, 0.0254882, 0.0521605, 0.928204, -0.368398],
  "ImageType": [
    "ORIGINAL",
    "PRIMARY",
    "M",
    "MB",
    "ND",
    "MOSAIC"
],
  "ImagingFrequency": 123.259,
  "InPlanePhaseEncodingDirectionDICOM": "COL",
  "InstitutionAddress": "Chemin_Queen-Mary_4565_Montreal_District_CA_H3W_1W5",
  "InstitutionName": "IUGM",
  "InstitutionalDepartmentName": "Department",
  "MRAcquisitionType": "2D",
  "MagneticFieldStrength": 3,
  "Manufacturer": "Siemens",
  "ManufacturersModelName": "Prisma_fit",
  "Modality": "MR",
  "MultibandAccelerationFactor": 4,
  "PartialFourier": 1,
  "PatientPosition": "HFS",
  "PercentPhaseFOV": 100,
  "PhaseEncodingDirection": "j",
  "PhaseEncodingSteps": 104,
  "PhaseResolution": 1,
  "PixelBandwidth": 2290,
  "ProcedureStepDescription": "games_shinobi",
  "ProtocolName": "func_task-shinobi_run-2",
  "PulseSequenceDetails": "%CustomerSeq%_cmrr_mbep2d_bold",
  "ReceiveCoilActiveElements": "HC1-7;NC1,2",
  "ReceiveCoilName": "HeadNeck_64",
  "ReconMatrixPE": 104,
  "RepetitionTime": 1.49,
  "SAR": 0.0302712,
  "ScanOptions": "FS",
  "ScanningSequence": "EP",
  "SequenceName": "epfid2d1_104",
  "SequenceVariant": "SK_SS",
  "SeriesDescription": "func_task-shinobi_run-2",
  "SeriesNumber": 11,
  "ShimSetting": [638, -7249, -8862, 609, 13, -229, -43, -25],
  "SliceThickness": 2,
  "SliceTiming": [0, 0.785, 0.1, 0.8825, 0.1975, 0.98, 0.295, 1.0775, 0.3925, 1.1775, 0.49, 1.275, 0.59, 1.3725, 0.6875, 0, 0.785, 0.1, 0.8825, 0.1975, 0.98, 0.295, 1.0775, 0.3925, 1.1775, 0.49, 1.275, 0.59, 1.3725, 0.6875, 0, 0.785, 0.1, 0.8825, 0.1975, 0.98, 0.295, 1.0775, 0.3925, 1.1775, 0.49, 1.275, 0.59, 1.3725, 0.6875, 0, 0.785, 0.1, 0.8825, 0.1975, 0.98, 0.295, 1.0775, 0.3925, 1.1775, 0.49, 1.275, 0.59, 1.3725, 0.6875],
  "SoftwareVersions": "syngo_MR_E11",
  "SpacingBetweenSlices": 2,
  "StationName": "MRC35049",
  "TaskName": "shinobi",
  "TotalReadoutTime": 0.0576811,
  "TxRefAmp": 219.506,
  "WipMemBlock": "218dccda-6191-4aff-ae66-972791670e36||Sequence: R016 ve11c/master r/e634e98; Dec 19 2017 11:00:25 by eja",
  "dcmmeta_affine": [
    [-1.9972323179244995, 0.10432101786136627, 0.013423088937997818, 100.8430404663086],
    [0.09200245887041092, 1.856407880783081, -0.7384344935417175, -67.29235076904297],
    [0.05097648501396179, 0.73679518699646, 1.8586376905441284, -78.10784912109375],
    [0.0, 0.0, 0.0, 1.0]
],
  "dcmmeta_reorient_transform": [
    [0.0, -1.0, 0.0, 103.0],
    [1.0, 0.0, 0.0, 0.0],
    [0.0, 0.0, 1.0, 0.0],
    [0.0, 0.0, 0.0, 1.0]
],
  "dcmmeta_shape": [104, 104, 60, 500],
  "dcmmeta_slice_dim": 2,
  "dcmmeta_version": 0.6,
  "global": {
    "const": {
      "AcquisitionMatrix": [104, 0, 0, 104],
      "AngioFlag": "N",
      "BitsAllocated": 16,
      "BitsStored": 16,
      "BodyPartExamined": "BRAIN",
      "Columns": 832,
      "EchoNumbers": 1,
      "EchoTime": 37.0,
      "EchoTrainLength": 104,
      "FlipAngle": 52.0,
      "HighBit": 15,
      "ImageOrientationPatient": [0.99861616075517, -0.0460012282738, 0.02548824191479, 0.05216050850815, 0.92820391229284, -0.3683975821805],
      "ImagePositionPatient": [-876.55351728968, -766.16121220542, 247.42005504881],
      "ImageType": [
        "ORIGINAL",
        "PRIMARY",
        "M",
        "MB",
        "ND",
        "MOSAIC"
],
      "ImagedNucleus": "1H",
      "ImagingFrequency": 123.259034,
      "InPlanePhaseEncodingDirection": "COL",
      "MRAcquisitionType": "2D",
      "MagneticFieldStrength": 3.0,
      "Manufacturer": "SIEMENS",
      "ManufacturerModelName": "Prisma_fit",
      "Modality": "MR",
      "NumberOfAverages": 1.0,
      "NumberOfPhaseEncodingSteps": 104,
      "PercentPhaseFieldOfView": 100.0,
      "PercentSampling": 100.0,
      "PerformedProcedureStepStartTime": "144812.298000",
      "PhotometricInterpretation": "MONOCHROME2",
      "PixelBandwidth": 2290.0,
      "PixelRepresentation": 0,
      "PixelSpacing": [2.0, 2.0],
      "ProtocolName": "func_task-shinobi_run-2",
      "RepetitionTime": 1490.0,
      "Rows": 832,
      "SAR": 0.03027120625608,
      "SamplesPerPixel": 1,
      "ScanOptions": "FS",
      "ScanningSequence": "EP",
      "SequenceName": "epfid2d1_104",
      "SequenceVariant": [
        "SK",
        "SS"
],
      "SeriesDescription": "func_task-shinobi_run-2",
      "SeriesNumber": 11,
      "SeriesTime": "153847.704000",
      "SliceLocation": -47.064787410407,
      "SliceThickness": 2.0,
      "SmallestImagePixelValue": 0,
      "SoftwareVersions": "syngo MR E11",
      "SpacingBetweenSlices": 1.9999999263101,
      "SpecificCharacterSet": "ISO_IR 100",
      "StudyID": "1",
      "StudyTime": "144812.235000",
      "TransmitCoilName": "Body",
      "VariableFlipAngleFlag": "N",
      "WindowCenterWidthExplanation": "Algo1",
      "dBdt": 0.0},
    "slices": {}
  },
  "time": {
    "samples": {
      "AcquisitionNumber": [1, 2, 3, 4, 5, 6, 7, 8, 9, 10, 11, 12, 13, 14, 15, 16, 17, 18, 19, 20, 21, 22, 23, 24, 25, 26, 27, 28, 29, 30, 31, 32, 33, 34, 35, 36, 37, 38, 39, 40, 41, 42, 43, 44, 45, 46, 47, 48, 49, 50, 51, 52, 53, 54, 55, 56, 57, 58, 59, 60, 61, 62, 63, 64, 65, 66, 67, 68, 69, 70, 71, 72, 73, 74, 75, 76, 77, 78, 79, 80, 81, 82, 83, 84, 85, 86, 87, 88, 89, 90, 91, 92, 93, 94, 95, 96, 97, 98, 99, 100, 101, 102, 103, 104, 105, 106, 107, 108, 109, 110, 111, 112, 113, 114, 115, 116, 117, 118, 119, 120, 121, 122, 123, 124, 125, 126, 127, 128, 129, 130, 131, 132, 133, 134, 135, 136, 137, 138, 139, 140, 141, 142, 143, 144, 145, 146, 147, 148, 149, 150, 151, 152, 153, 154, 155, 156, 157, 158, 159, 160, 161, 162, 163, 164, 165, 166, 167, 168, 169, 170, 171, 172, 173, 174, 175, 176, 177, 178, 179, 180, 181, 182, 183, 184, 185, 186, 187, 188, 189, 190, 191, 192, 193, 194, 195, 196, 197, 198, 199, 200, 201, 202, 203, 204, 205, 206, 207, 208, 209, 210, 211, 212, 213, 214, 215, 216, 217, 218, 219, 220, 221, 222, 223, 224, 225, 226, 227, 228, 229, 230, 231, 232, 233, 234, 235, 236, 237, 238, 239, 240, 241, 242, 243, 244, 245, 246, 247, 248, 249, 250, 251, 252, 253, 254, 255, 256, 257, 258, 259, 260, 261, 262, 263, 264, 265, 266, 267, 268, 269, 270, 271, 272, 273, 274, 275, 276, 277, 278, 279, 280, 281, 282, 283, 284, 285, 286, 287, 288, 289, 290, 291, 292, 293, 294, 295, 296, 297, 298, 299, 300, 301, 302, 303, 304, 305, 306, 307, 308, 309, 310, 311, 312, 313, 314, 315, 316, 317, 318, 319, 320, 321, 322, 323, 324, 325, 326, 327, 328, 329, 330, 331, 332, 333, 334, 335, 336, 337, 338, 339, 340, 341, 342, 343, 344, 345, 346, 347, 348, 349, 350, 351, 352, 353, 354, 355, 356, 357, 358, 359, 360, 361, 362, 363, 364, 365, 366, 367, 368, 369, 370, 371, 372, 373, 374, 375, 376, 377, 378, 379, 380, 381, 382, 383, 384, 385, 386, 387, 388, 389, 390, 391, 392, 393, 394, 395, 396, 397, 398, 399, 400, 401, 402, 403, 404, 405, 406, 407, 408, 409, 410, 411, 412, 413, 414, 415, 416, 417, 418, 419, 420, 421, 422, 423, 424, 425, 426, 427, 428, 429, 430, 431, 432, 433, 434, 435, 436, 437, 438, 439, 440, 441, 442, 443, 444, 445, 446, 447, 448, 449, 450, 451, 452, 453, 454, 455, 456, 457, 458, 459, 460, 461, 462, 463, 464, 465, 466, 467, 468, 469, 470, 471, 472, 473, 474, 475, 476, 477, 478, 479, 480, 481, 482, 483, 484, 485, 486, 487, 488, 489, 490, 491, 492, 493, 494, 495, 496, 497, 498, 499, 500],
      "AcquisitionTime": ["153724.780000", "153726.270000", "153727.760000", "153729.250000", "153730.740000", "153732.230000", "153733.720000", "153735.210000", "153736.700000", "153738.190000", "153739.680000", "153741.170000", "153742.660000", "153744.150000", "153745.640000", "153747.130000", "153748.620000", "153750.110000", "153751.600000", "153753.090000", "153754.580000", "153756.070000", "153757.560000", "153759.050000", "153800.540000", "153802.030000", "153803.520000", "153805.010000", "153806.500000", "153807.990000", "153809.480000", "153810.970000", "153812.460000", "153813.950000", "153815.440000", "153816.930000", "153818.420000", "153819.910000", "153821.400000", "153822.890000", "153824.380000", "153825.870000", "153827.360000", "153828.850000", "153830.340000", "153831.830000", "153833.320000", "153834.810000", "153836.300000", "153837.790000", "153839.280000", "153840.770000", "153842.260000", "153843.750000", "153845.240000", "153846.730000", "153848.220000", "153849.710000", "153851.200000", "153852.690000", "153854.180000", "153855.670000", "153857.160000", "153858.650000", "153900.140000", "153901.630000", "153903.120000", "153904.610000", "153906.100000", "153907.590000", "153909.080000", "153910.570000", "153912.060000", "153913.550000", "153915.040000", "153916.530000", "153918.020000", "153919.510000", "153921.000000", "153922.490000", "153923.980000", "153925.470000", "153926.960000", "153928.450000", "153929.940000", "153931.430000", "153932.920000", "153934.410000", "153935.900000", "153937.390000", "153938.880000", "153940.370000", "153941.860000", "153943.350000", "153944.840000", "153946.330000", "153947.820000", "153949.310000", "153950.800000", "153952.290000", "153953.780000", "153955.270000", "153956.760000", "153958.250000", "153959.740000", "154001.230000", "154002.720000", "154004.210000", "154005.700000", "154007.190000", "154008.680000", "154010.170000", "154011.660000", "154013.150000", "154014.640000", "154016.130000", "154017.620000", "154019.110000", "154020.600000", "154022.090000", "154023.580000", "154025.070000", "154026.560000", "154028.050000", "154029.540000", "154031.030000", "154032.520000", "154034.010000", "154035.500000", "154036.990000", "154038.480000", "154039.970000", "154041.460000", "154042.950000", "154044.440000", "154045.930000", "154047.420000", "154048.910000", "154050.400000", "154051.890000", "154053.380000", "154054.870000", "154056.360000", "154057.850000", "154059.340000", "154100.830000", "154102.320000", "154103.810000", "154105.300000", "154106.790000", "154108.280000", "154109.770000", "154111.260000", "154112.750000", "154114.240000", "154115.730000", "154117.220000", "154118.710000", "154120.200000", "154121.690000", "154123.180000", "154124.670000", "154126.160000", "154127.650000", "154129.140000", "154130.630000", "154132.120000", "154133.610000", "154135.100000", "154136.590000", "154138.080000", "154139.570000", "154141.060000", "154142.550000", "154144.040000", "154145.530000", "154147.020000", "154148.510000", "154150.000000", "154151.490000", "154152.980000", "154154.470000", "154155.960000", "154157.450000", "154158.940000", "154200.430000", "154201.920000", "154203.410000", "154204.900000", "154206.390000", "154207.880000", "154209.370000", "154210.860000", "154212.350000", "154213.840000", "154215.330000", "154216.820000", "154218.310000", "154219.800000", "154221.290000", "154222.780000", "154224.270000", "154225.760000", "154227.250000", "154228.740000", "154230.230000", "154231.720000", "154233.210000", "154234.700000", "154236.190000", "154237.680000", "154239.170000", "154240.660000", "154242.150000", "154243.640000", "154245.130000", "154246.620000", "154248.110000", "154249.600000", "154251.090000", "154252.580000", "154254.070000", "154255.560000", "154257.050000", "154258.540000", "154300.030000", "154301.520000", "154303.010000", "154304.500000", "154305.990000", "154307.480000", "154308.970000", "154310.460000", "154311.950000", "154313.440000", "154314.930000", "154316.420000", "154317.910000", "154319.400000", "154320.890000", "154322.380000", "154323.870000", "154325.360000", "154326.850000", "154328.340000", "154329.830000", "154331.320000", "154332.810000", "154334.300000", "154335.790000", "154337.280000", "154338.770000", "154340.260000", "154341.750000", "154343.240000", "154344.730000", "154346.220000", "154347.710000", "154349.200000", "154350.690000", "154352.180000", "154353.670000", "154355.160000", "154356.650000", "154358.140000", "154359.630000", "154401.120000", "154402.610000", "154404.100000", "154405.590000", "154407.080000", "154408.570000", "154410.060000", "154411.550000", "154413.040000", "154414.530000", "154416.020000", "154417.510000", "154419.000000", "154420.490000", "154421.980000", "154423.470000", "154424.960000", "154426.450000", "154427.940000", "154429.430000", "154430.920000", "154432.410000", "154433.900000", "154435.390000", "154436.880000", "154438.370000", "154439.860000", "154441.350000", "154442.840000", "154444.330000", "154445.820000", "154447.310000", "154448.800000", "154450.290000", "154451.780000", "154453.270000", "154454.760000", "154456.250000", "154457.740000", "154459.230000", "154500.720000", "154502.210000", "154503.700000", "154505.190000", "154506.680000", "154508.170000", "154509.660000", "154511.150000", "154512.640000", "154514.130000", "154515.620000", "154517.110000", "154518.600000", "154520.090000", "154521.580000", "154523.070000", "154524.560000", "154526.050000", "154527.540000", "154529.030000", "154530.520000", "154532.010000", "154533.500000", "154534.990000", "154536.480000", "154537.970000", "154539.460000", "154540.950000", "154542.440000", "154543.930000", "154545.420000", "154546.910000", "154548.400000", "154549.890000", "154551.380000", "154552.870000", "154554.360000", "154555.850000", "154557.340000", "154558.830000", "154600.320000", "154601.810000", "154603.300000", "154604.790000", "154606.280000", "154607.770000", "154609.260000", "154610.750000", "154612.240000", "154613.730000", "154615.220000", "154616.710000", "154618.200000", "154619.690000", "154621.180000", "154622.670000", "154624.160000", "154625.650000", "154627.140000", "154628.630000", "154630.120000", "154631.610000", "154633.100000", "154634.590000", "154636.080000", "154637.570000", "154639.060000", "154640.550000", "154642.040000", "154643.530000", "154645.020000", "154646.510000", "154648.000000", "154649.490000", "154650.980000", "154652.470000", "154653.960000", "154655.450000", "154656.940000", "154658.430000", "154659.920000", "154701.410000", "154702.900000", "154704.390000", "154705.880000", "154707.370000", "154708.860000", "154710.350000", "154711.840000", "154713.330000", "154714.820000", "154716.310000", "154717.800000", "154719.290000", "154720.780000", "154722.270000", "154723.760000", "154725.250000", "154726.740000", "154728.230000", "154729.720000", "154731.210000", "154732.700000", "154734.190000", "154735.680000", "154737.170000", "154738.660000", "154740.150000", "154741.640000", "154743.130000", "154744.620000", "154746.110000", "154747.600000", "154749.090000", "154750.580000", "154752.070000", "154753.560000", "154755.050000", "154756.540000", "154758.030000", "154759.520000", "154801.010000", "154802.500000", "154803.990000", "154805.480000", "154806.970000", "154808.460000", "154809.950000", "154811.440000", "154812.930000", "154814.420000", "154815.910000", "154817.400000", "154818.890000", "154820.380000", "154821.870000", "154823.360000", "154824.850000", "154826.340000", "154827.830000", "154829.320000", "154830.810000", "154832.300000", "154833.790000", "154835.280000", "154836.770000", "154838.260000", "154839.750000", "154841.240000", "154842.730000", "154844.220000", "154845.710000", "154847.200000", "154848.690000", "154850.180000", "154851.670000", "154853.160000", "154854.650000", "154856.140000", "154857.630000", "154859.120000", "154900.610000", "154902.100000", "154903.590000", "154905.080000", "154906.570000", "154908.060000", "154909.550000", "154911.040000", "154912.530000", "154914.020000", "154915.510000", "154917.000000", "154918.490000", "154919.980000", "154921.470000", "154922.960000", "154924.450000", "154925.940000", "154927.430000", "154928.920000", "154930.410000", "154931.900000", "154933.390000", "154934.880000", "154936.370000", "154937.860000", "154939.350000", "154940.840000", "154942.330000", "154943.820000", "154945.310000", "154946.800000", "154948.290000"],
      "ContentTime": ["153847.707000", "153847.710000", "153847.713000", "153847.716000", "153847.721000", "153847.728000", "153847.731000", "153847.737000", "153847.740000", "153847.742000", "153847.745000", "153847.748000", "153847.751000", "153847.754000", "153847.760000", "153847.762000", "153847.765000", "153847.768000", "153847.771000", "153847.774000", "153847.777000", "153847.780000", "153847.783000", "153847.785000", "153847.788000", "153847.791000", "153847.794000", "153847.797000", "153847.800000", "153907.675000", "153907.678000", "153907.681000", "153907.684000", "153907.686000", "153907.689000", "153907.692000", "153907.706000", "153907.708000", "153907.711000", "153907.714000", "153907.717000", "153907.720000", "153907.723000", "153907.726000", "153907.729000", "153907.731000", "153907.734000", "153907.737000", "153907.740000", "153927.675000", "153927.678000", "153927.681000", "153927.696000", "153927.699000", "153927.702000", "153927.705000", "153927.708000", "153927.711000", "153927.714000", "153927.716000", "153927.719000", "153927.722000", "153927.725000", "153927.728000", "153927.731000", "153927.733000", "153927.736000", "153927.739000", "153927.742000", "153947.675000", "153947.678000", "153947.681000", "153947.683000", "153947.686000", "153947.694000", "153947.697000", "153947.700000", "153947.703000", "153947.705000", "153947.708000", "153947.711000", "153947.714000", "153947.717000", "153947.720000", "153947.723000", "153947.726000", "153947.728000", "153947.731000", "153947.734000", "153947.737000", "154027.676000", "154027.679000", "154027.682000", "154027.685000", "154027.687000", "154027.690000", "154027.693000", "154027.696000", "154027.699000", "154027.702000", "154027.704000", "154027.707000", "154027.710000", "154027.713000", "154027.716000", "154027.719000", "154027.722000", "154027.724000", "154027.727000", "154027.730000", "154027.733000", "154027.736000", "154027.738000", "154027.741000", "154027.744000", "154027.747000", "154027.750000", "154027.753000", "154027.756000", "154027.758000", "154027.761000", "154027.764000", "154107.676000", "154107.679000", "154107.682000", "154107.685000", "154107.687000", "154107.690000", "154107.693000", "154107.696000", "154107.699000", "154107.702000", "154107.705000", "154107.708000", "154107.710000", "154107.713000", "154107.716000", "154107.719000", "154107.722000", "154107.725000", "154107.728000", "154107.730000", "154107.733000", "154107.736000", "154107.739000", "154107.742000", "154107.745000", "154107.748000", "154107.750000", "154147.675000", "154147.678000", "154147.681000", "154147.684000", "154147.686000", "154147.689000", "154147.692000", "154147.695000", "154147.698000", "154147.701000", "154147.704000", "154147.707000", "154147.709000", "154147.712000", "154147.715000", "154147.730000", "154147.732000", "154147.735000", "154147.738000", "154147.741000", "154147.744000", "154147.747000", "154147.750000", "154147.752000", "154147.755000", "154147.758000", "154207.675000", "154207.678000", "154207.681000", "154207.683000", "154207.687000", "154207.689000", "154207.692000", "154207.695000", "154207.698000", "154207.701000", "154207.704000", "154207.706000", "154207.710000", "154207.712000", "154247.676000", "154247.679000", "154247.682000", "154247.684000", "154247.687000", "154247.690000", "154247.693000", "154247.696000", "154247.699000", "154247.702000", "154247.704000", "154247.707000", "154247.710000", "154247.713000", "154247.716000", "154247.719000", "154247.722000", "154247.725000", "154247.727000", "154247.730000", "154247.733000", "154247.736000", "154247.739000", "154247.742000", "154247.745000", "154247.748000", "154247.751000", "154327.676000", "154327.679000", "154327.682000", "154327.685000", "154327.688000", "154327.690000", "154327.693000", "154327.696000", "154327.699000", "154327.702000", "154327.705000", "154327.708000", "154327.710000", "154327.713000", "154327.716000", "154327.719000", "154327.722000", "154327.725000", "154327.727000", "154327.730000", "154327.733000", "154327.736000", "154327.739000", "154327.749000", "154327.752000", "154327.755000", "154327.758000", "154407.675000", "154407.678000", "154407.681000", "154407.683000", "154407.686000", "154407.689000", "154407.692000", "154407.695000", "154407.698000", "154407.701000", "154407.703000", "154407.724000", "154407.728000", "154407.731000", "154407.733000", "154407.736000", "154407.739000", "154407.742000", "154407.745000", "154407.748000", "154407.750000", "154407.753000", "154407.756000", "154407.759000", "154407.762000", "154407.765000", "154447.676000", "154447.679000", "154447.682000", "154447.684000", "154447.687000", "154447.690000", "154447.693000", "154447.696000", "154447.699000", "154447.702000", "154447.705000", "154447.707000", "154447.710000", "154447.713000", "154447.716000", "154447.719000", "154447.722000", "154447.725000", "154447.727000", "154447.730000", "154447.733000", "154447.736000", "154447.739000", "154447.742000", "154447.744000", "154447.747000", "154447.750000", "154527.676000", "154527.679000", "154527.682000", "154527.685000", "154527.688000", "154527.690000", "154527.693000", "154527.696000", "154527.699000", "154527.702000", "154527.705000", "154527.708000", "154527.711000", "154527.714000", "154527.716000", "154527.719000", "154527.722000", "154527.725000", "154527.728000", "154527.731000", "154527.734000", "154527.736000", "154527.739000", "154527.742000", "154527.745000", "154527.748000", "154527.751000", "154607.675000", "154607.678000", "154607.681000", "154607.684000", "154607.687000", "154607.689000", "154607.692000", "154607.695000", "154607.698000", "154607.701000", "154607.704000", "154607.707000", "154607.710000", "154607.713000", "154607.716000", "154607.718000", "154607.721000", "154607.724000", "154607.727000", "154607.730000", "154607.733000", "154607.735000", "154607.738000", "154607.741000", "154607.744000", "154607.747000", "154607.750000", "154647.675000", "154647.678000", "154647.681000", "154647.684000", "154647.687000", "154647.690000", "154647.692000", "154647.695000", "154647.698000", "154647.701000", "154647.704000", "154647.707000", "154647.710000", "154647.713000", "154647.715000", "154647.718000", "154647.721000", "154647.724000", "154647.727000", "154647.730000", "154647.732000", "154647.735000", "154647.738000", "154647.741000", "154647.744000", "154647.747000", "154647.749000", "154727.676000", "154727.679000", "154727.682000", "154727.685000", "154727.688000", "154727.690000", "154727.693000", "154727.696000", "154727.699000", "154727.702000", "154727.705000", "154727.708000", "154727.711000", "154727.713000", "154727.716000", "154727.719000", "154727.722000", "154727.725000", "154727.727000", "154727.730000", "154727.733000", "154727.736000", "154727.739000", "154727.742000", "154727.745000", "154727.747000", "154727.750000", "154807.676000", "154807.679000", "154807.682000", "154807.685000", "154807.688000", "154807.691000", "154807.693000", "154807.696000", "154807.699000", "154807.702000", "154807.705000", "154807.708000", "154807.711000", "154807.714000", "154807.716000", "154807.720000", "154807.722000", "154807.725000", "154807.728000", "154807.731000", "154807.735000", "154807.738000", "154807.741000", "154807.744000", "154807.747000", "154807.750000", "154847.675000", "154847.678000", "154847.681000", "154847.684000", "154847.686000", "154847.690000", "154847.692000", "154847.695000", "154847.698000", "154847.701000", "154847.704000", "154847.707000", "154847.723000", "154847.726000", "154847.729000", "154847.732000", "154847.735000", "154847.738000", "154847.741000", "154847.743000", "154847.746000", "154847.749000", "154847.752000", "154847.755000", "154847.758000", "154847.761000", "154847.763000", "154927.676000", "154927.679000", "154927.682000", "154927.685000", "154927.688000", "154927.690000", "154927.693000", "154927.704000", "154927.707000", "154927.710000", "154927.713000", "154927.716000", "154927.719000", "154927.722000", "154927.725000", "154927.727000", "154927.730000", "154927.733000", "154927.736000", "154927.739000", "154927.742000", "154927.745000", "154927.748000", "154927.751000", "154927.754000", "154927.756000", "154927.759000", "154951.057000", "154951.060000", "154951.063000", "154951.066000", "154951.068000", "154951.072000", "154951.074000", "154951.077000", "154951.080000", "154951.089000", "154951.093000", "154951.097000", "154951.100000", "154951.103000", "154951.107000", "154951.110000"],
