{
  "AcquisitionMatrixPE": 104,
  "AcquisitionNumber": 1,
  "AcquisitionTime": "16:18:31.800000",
  "BandwidthPerPixelPhaseEncode": 17.17,
  "BaseResolution": 104,
  "BodyPartExamined": "BRAIN",
  "CoilString": "HC1-7;NC1_2",
  "ConsistencyInfo": "N4_VE11C_LATEST_20160120",
  "ConversionSoftware": "dcm2niix",
  "ConversionSoftwareVersion": "v1.0.20190902",
  "DerivedVendorReportedEchoSpacing": 0.000560011,
  "DeviceSerialNumber": "167006",
  "DwellTime": 2.1e-06,
  "EchoTime": 0.037,
  "EchoTrainLength": 104,
  "EffectiveEchoSpacing": 0.000560011,
  "FlipAngle": 52,
  "ImageComments": "Unaliased_MB4_PE3_LB",
  "ImageOrientationPatientDICOM": [0.998616, -0.0460012, 0.0254882, 0.0521605, 0.928204, -0.368398],
  "ImageType": [
    "ORIGINAL",
    "PRIMARY",
    "M",
    "MB",
    "ND",
    "MOSAIC"
],
  "ImagingFrequency": 123.259,
  "InPlanePhaseEncodingDirectionDICOM": "COL",
  "InstitutionAddress": "Chemin_Queen-Mary_4565_Montreal_District_CA_H3W_1W5",
  "InstitutionName": "IUGM",
  "InstitutionalDepartmentName": "Department",
  "MRAcquisitionType": "2D",
  "MagneticFieldStrength": 3,
  "Manufacturer": "Siemens",
  "ManufacturersModelName": "Prisma_fit",
  "Modality": "MR",
  "MultibandAccelerationFactor": 4,
  "PartialFourier": 1,
  "PatientPosition": "HFS",
  "PercentPhaseFOV": 100,
  "PhaseEncodingDirection": "j",
  "PhaseEncodingSteps": 104,
  "PhaseResolution": 1,
  "PixelBandwidth": 2290,
  "ProcedureStepDescription": "games_shinobi",
  "ProtocolName": "func_task-shinobi_run-5",
  "PulseSequenceDetails": "%CustomerSeq%_cmrr_mbep2d_bold",
  "ReceiveCoilActiveElements": "HC1-7;NC1,2",
  "ReceiveCoilName": "HeadNeck_64",
  "ReconMatrixPE": 104,
  "RepetitionTime": 1.49,
  "SAR": 0.0302712,
  "ScanOptions": "FS",
  "ScanningSequence": "EP",
  "SequenceName": "epfid2d1_104",
  "SequenceVariant": "SK_SS",
  "SeriesDescription": "func_task-shinobi_run-5",
  "SeriesNumber": 17,
  "ShimSetting": [638, -7249, -8862, 609, 13, -229, -43, -25],
  "SliceThickness": 2,
  "SliceTiming": [0, 0.785, 0.0975, 0.8825, 0.1975, 0.98, 0.295, 1.0775, 0.3925, 1.175, 0.49, 1.275, 0.5875, 1.3725, 0.685, 0, 0.785, 0.0975, 0.8825, 0.1975, 0.98, 0.295, 1.0775, 0.3925, 1.175, 0.49, 1.275, 0.5875, 1.3725, 0.685, 0, 0.785, 0.0975, 0.8825, 0.1975, 0.98, 0.295, 1.0775, 0.3925, 1.175, 0.49, 1.275, 0.5875, 1.3725, 0.685, 0, 0.785, 0.0975, 0.8825, 0.1975, 0.98, 0.295, 1.0775, 0.3925, 1.175, 0.49, 1.275, 0.5875, 1.3725, 0.685],
  "SoftwareVersions": "syngo_MR_E11",
  "SpacingBetweenSlices": 2,
  "StationName": "MRC35049",
  "TaskName": "shinobi",
  "TotalReadoutTime": 0.0576811,
  "TxRefAmp": 219.506,
  "WipMemBlock": "37948533-4529-4eae-98d6-fd7a0a0903ff||Sequence: R016 ve11c/master r/e634e98; Dec 19 2017 11:00:25 by eja",
  "dcmmeta_affine": [
    [-1.9972323179244995, 0.10432101786136627, 0.013423088937997818, 100.8430404663086],
    [0.09200245887041092, 1.856407880783081, -0.7384344935417175, -67.29235076904297],
    [0.05097648501396179, 0.73679518699646, 1.8586376905441284, -78.10784912109375],
    [0.0, 0.0, 0.0, 1.0]
],
  "dcmmeta_reorient_transform": [
    [0.0, -1.0, 0.0, 103.0],
    [1.0, 0.0, 0.0, 0.0],
    [0.0, 0.0, 1.0, 0.0],
    [0.0, 0.0, 0.0, 1.0]
],
  "dcmmeta_shape": [104, 104, 60, 441],
  "dcmmeta_slice_dim": 2,
  "dcmmeta_version": 0.6,
  "global": {
    "const": {
      "AcquisitionMatrix": [104, 0, 0, 104],
      "AngioFlag": "N",
      "BitsAllocated": 16,
      "BitsStored": 16,
      "BodyPartExamined": "BRAIN",
      "Columns": 832,
      "EchoNumbers": 1,
      "EchoTime": 37.0,
      "EchoTrainLength": 104,
      "FlipAngle": 52.0,
      "HighBit": 15,
      "ImageOrientationPatient": [0.99861616075517, -0.0460012282738, 0.02548824191479, 0.05216050850815, 0.92820391229284, -0.3683975821805],
      "ImagePositionPatient": [-876.55351728968, -766.16121220542, 247.42005504881],
      "ImageType": [
        "ORIGINAL",
        "PRIMARY",
        "M",
        "MB",
        "ND",
        "MOSAIC"
],
      "ImagedNucleus": "1H",
      "ImagingFrequency": 123.259047,
      "InPlanePhaseEncodingDirection": "COL",
      "MRAcquisitionType": "2D",
      "MagneticFieldStrength": 3.0,
      "Manufacturer": "SIEMENS",
      "ManufacturerModelName": "Prisma_fit",
      "Modality": "MR",
      "NumberOfAverages": 1.0,
      "NumberOfPhaseEncodingSteps": 104,
      "PercentPhaseFieldOfView": 100.0,
      "PercentSampling": 100.0,
      "PerformedProcedureStepStartTime": "144812.298000",
      "PhotometricInterpretation": "MONOCHROME2",
      "PixelBandwidth": 2290.0,
      "PixelRepresentation": 0,
      "PixelSpacing": [2.0, 2.0],
      "ProtocolName": "func_task-shinobi_run-5",
      "RepetitionTime": 1490.0,
      "Rows": 832,
      "SAR": 0.03027120625608,
      "SamplesPerPixel": 1,
      "ScanOptions": "FS",
      "ScanningSequence": "EP",
      "SequenceName": "epfid2d1_104",
      "SequenceVariant": [
        "SK",
        "SS"
],
      "SeriesDescription": "func_task-shinobi_run-5",
      "SeriesNumber": 17,
      "SeriesTime": "161947.704000",
      "SliceLocation": -47.064787410407,
      "SliceThickness": 2.0,
      "SmallestImagePixelValue": 0,
      "SoftwareVersions": "syngo MR E11",
      "SpacingBetweenSlices": 1.9999999263101,
      "SpecificCharacterSet": "ISO_IR 100",
      "StudyID": "1",
      "StudyTime": "144812.235000",
      "TransmitCoilName": "Body",
      "VariableFlipAngleFlag": "N",
      "WindowCenterWidthExplanation": "Algo1",
      "dBdt": 0.0},
    "slices": {}
  },
  "time": {
    "samples": {
      "AcquisitionNumber": [1, 2, 3, 4, 5, 6, 7, 8, 9, 10, 11, 12, 13, 14, 15, 16, 17, 18, 19, 20, 21, 22, 23, 24, 25, 26, 27, 28, 29, 30, 31, 32, 33, 34, 35, 36, 37, 38, 39, 40, 41, 42, 43, 44, 45, 46, 47, 48, 49, 50, 51, 52, 53, 54, 55, 56, 57, 58, 59, 60, 61, 62, 63, 64, 65, 66, 67, 68, 69, 70, 71, 72, 73, 74, 75, 76, 77, 78, 79, 80, 81, 82, 83, 84, 85, 86, 87, 88, 89, 90, 91, 92, 93, 94, 95, 96, 97, 98, 99, 100, 101, 102, 103, 104, 105, 106, 107, 108, 109, 110, 111, 112, 113, 114, 115, 116, 117, 118, 119, 120, 121, 122, 123, 124, 125, 126, 127, 128, 129, 130, 131, 132, 133, 134, 135, 136, 137, 138, 139, 140, 141, 142, 143, 144, 145, 146, 147, 148, 149, 150, 151, 152, 153, 154, 155, 156, 157, 158, 159, 160, 161, 162, 163, 164, 165, 166, 167, 168, 169, 170, 171, 172, 173, 174, 175, 176, 177, 178, 179, 180, 181, 182, 183, 184, 185, 186, 187, 188, 189, 190, 191, 192, 193, 194, 195, 196, 197, 198, 199, 200, 201, 202, 203, 204, 205, 206, 207, 208, 209, 210, 211, 212, 213, 214, 215, 216, 217, 218, 219, 220, 221, 222, 223, 224, 225, 226, 227, 228, 229, 230, 231, 232, 233, 234, 235, 236, 237, 238, 239, 240, 241, 242, 243, 244, 245, 246, 247, 248, 249, 250, 251, 252, 253, 254, 255, 256, 257, 258, 259, 260, 261, 262, 263, 264, 265, 266, 267, 268, 269, 270, 271, 272, 273, 274, 275, 276, 277, 278, 279, 280, 281, 282, 283, 284, 285, 286, 287, 288, 289, 290, 291, 292, 293, 294, 295, 296, 297, 298, 299, 300, 301, 302, 303, 304, 305, 306, 307, 308, 309, 310, 311, 312, 313, 314, 315, 316, 317, 318, 319, 320, 321, 322, 323, 324, 325, 326, 327, 328, 329, 330, 331, 332, 333, 334, 335, 336, 337, 338, 339, 340, 341, 342, 343, 344, 345, 346, 347, 348, 349, 350, 351, 352, 353, 354, 355, 356, 357, 358, 359, 360, 361, 362, 363, 364, 365, 366, 367, 368, 369, 370, 371, 372, 373, 374, 375, 376, 377, 378, 379, 380, 381, 382, 383, 384, 385, 386, 387, 388, 389, 390, 391, 392, 393, 394, 395, 396, 397, 398, 399, 400, 401, 402, 403, 404, 405, 406, 407, 408, 409, 410, 411, 412, 413, 414, 415, 416, 417, 418, 419, 420, 421, 422, 423, 424, 425, 426, 427, 428, 429, 430, 431, 432, 433, 434, 435, 436, 437, 438, 439, 440, 441],
      "AcquisitionTime": ["161831.800000", "161833.290000", "161834.780000", "161836.270000", "161837.760000", "161839.250000", "161840.740000", "161842.230000", "161843.720000", "161845.210000", "161846.700000", "161848.190000", "161849.680000", "161851.170000", "161852.660000", "161854.150000", "161855.640000", "161857.130000", "161858.620000", "161900.110000", "161901.600000", "161903.090000", "161904.580000", "161906.070000", "161907.560000", "161909.050000", "161910.540000", "161912.030000", "161913.520000", "161915.010000", "161916.500000", "161917.990000", "161919.480000", "161920.970000", "161922.460000", "161923.950000", "161925.440000", "161926.930000", "161928.420000", "161929.910000", "161931.400000", "161932.890000", "161934.380000", "161935.870000", "161937.360000", "161938.850000", "161940.340000", "161941.830000", "161943.320000", "161944.810000", "161946.300000", "161947.790000", "161949.280000", "161950.770000", "161952.260000", "161953.750000", "161955.240000", "161956.730000", "161958.220000", "161959.710000", "162001.200000", "162002.690000", "162004.180000", "162005.670000", "162007.160000", "162008.650000", "162010.140000", "162011.630000", "162013.120000", "162014.610000", "162016.100000", "162017.590000", "162019.080000", "162020.570000", "162022.060000", "162023.550000", "162025.040000", "162026.530000", "162028.020000", "162029.510000", "162031.000000", "162032.490000", "162033.980000", "162035.470000", "162036.960000", "162038.450000", "162039.940000", "162041.430000", "162042.920000", "162044.410000", "162045.900000", "162047.390000", "162048.880000", "162050.370000", "162051.860000", "162053.350000", "162054.840000", "162056.330000", "162057.820000", "162059.310000", "162100.800000", "162102.290000", "162103.780000", "162105.270000", "162106.760000", "162108.250000", "162109.740000", "162111.230000", "162112.720000", "162114.210000", "162115.700000", "162117.190000", "162118.680000", "162120.170000", "162121.660000", "162123.150000", "162124.640000", "162126.130000", "162127.620000", "162129.110000", "162130.600000", "162132.090000", "162133.580000", "162135.070000", "162136.560000", "162138.050000", "162139.540000", "162141.030000", "162142.520000", "162144.010000", "162145.500000", "162146.990000", "162148.480000", "162149.970000", "162151.460000", "162152.950000", "162154.440000", "162155.930000", "162157.420000", "162158.910000", "162200.400000", "162201.890000", "162203.380000", "162204.870000", "162206.360000", "162207.850000", "162209.340000", "162210.830000", "162212.320000", "162213.810000", "162215.300000", "162216.790000", "162218.280000", "162219.770000", "162221.260000", "162222.750000", "162224.240000", "162225.730000", "162227.220000", "162228.710000", "162230.200000", "162231.690000", "162233.180000", "162234.670000", "162236.160000", "162237.650000", "162239.140000", "162240.630000", "162242.120000", "162243.610000", "162245.100000", "162246.590000", "162248.080000", "162249.570000", "162251.060000", "162252.550000", "162254.040000", "162255.530000", "162257.020000", "162258.510000", "162300.000000", "162301.490000", "162302.980000", "162304.470000", "162305.960000", "162307.450000", "162308.940000", "162310.430000", "162311.920000", "162313.410000", "162314.900000", "162316.390000", "162317.880000", "162319.370000", "162320.860000", "162322.350000", "162323.840000", "162325.330000", "162326.820000", "162328.310000", "162329.800000", "162331.290000", "162332.780000", "162334.270000", "162335.760000", "162337.250000", "162338.740000", "162340.230000", "162341.720000", "162343.210000", "162344.700000", "162346.190000", "162347.680000", "162349.170000", "162350.660000", "162352.150000", "162353.640000", "162355.130000", "162356.620000", "162358.110000", "162359.600000", "162401.090000", "162402.580000", "162404.070000", "162405.560000", "162407.050000", "162408.540000", "162410.030000", "162411.520000", "162413.010000", "162414.500000", "162415.990000", "162417.480000", "162418.970000", "162420.460000", "162421.950000", "162423.440000", "162424.930000", "162426.420000", "162427.910000", "162429.400000", "162430.890000", "162432.380000", "162433.870000", "162435.360000", "162436.850000", "162438.340000", "162439.830000", "162441.320000", "162442.810000", "162444.300000", "162445.790000", "162447.280000", "162448.770000", "162450.260000", "162451.750000", "162453.240000", "162454.730000", "162456.220000", "162457.710000", "162459.200000", "162500.690000", "162502.180000", "162503.670000", "162505.160000", "162506.650000", "162508.140000", "162509.630000", "162511.120000", "162512.610000", "162514.100000", "162515.590000", "162517.080000", "162518.570000", "162520.060000", "162521.550000", "162523.040000", "162524.530000", "162526.020000", "162527.510000", "162529.000000", "162530.490000", "162531.980000", "162533.470000", "162534.960000", "162536.450000", "162537.940000", "162539.430000", "162540.920000", "162542.410000", "162543.900000", "162545.390000", "162546.880000", "162548.370000", "162549.860000", "162551.350000", "162552.840000", "162554.330000", "162555.820000", "162557.310000", "162558.800000", "162600.290000", "162601.780000", "162603.270000", "162604.760000", "162606.250000", "162607.740000", "162609.230000", "162610.720000", "162612.210000", "162613.700000", "162615.190000", "162616.680000", "162618.170000", "162619.660000", "162621.150000", "162622.640000", "162624.130000", "162625.620000", "162627.110000", "162628.600000", "162630.090000", "162631.580000", "162633.070000", "162634.560000", "162636.050000", "162637.540000", "162639.030000", "162640.520000", "162642.010000", "162643.500000", "162644.990000", "162646.480000", "162647.970000", "162649.460000", "162650.950000", "162652.440000", "162653.930000", "162655.420000", "162656.910000", "162658.400000", "162659.890000", "162701.380000", "162702.870000", "162704.360000", "162705.850000", "162707.340000", "162708.830000", "162710.320000", "162711.810000", "162713.300000", "162714.790000", "162716.280000", "162717.770000", "162719.260000", "162720.750000", "162722.240000", "162723.730000", "162725.220000", "162726.710000", "162728.200000", "162729.690000", "162731.180000", "162732.670000", "162734.160000", "162735.650000", "162737.140000", "162738.630000", "162740.120000", "162741.610000", "162743.100000", "162744.590000", "162746.080000", "162747.570000", "162749.060000", "162750.550000", "162752.040000", "162753.530000", "162755.020000", "162756.510000", "162758.000000", "162759.490000", "162800.980000", "162802.470000", "162803.960000", "162805.450000", "162806.940000", "162808.430000", "162809.920000", "162811.410000", "162812.900000", "162814.390000", "162815.880000", "162817.370000", "162818.860000", "162820.350000", "162821.840000", "162823.330000", "162824.820000", "162826.310000", "162827.800000", "162829.290000", "162830.780000", "162832.270000", "162833.760000", "162835.250000", "162836.740000", "162838.230000", "162839.720000", "162841.210000", "162842.700000", "162844.190000", "162845.680000", "162847.170000", "162848.660000", "162850.150000", "162851.640000", "162853.130000", "162854.620000", "162856.110000", "162857.600000", "162859.090000", "162900.580000", "162902.070000", "162903.560000", "162905.050000", "162906.540000", "162908.030000", "162909.520000", "162911.010000", "162912.500000", "162913.990000", "162915.480000", "162916.970000", "162918.460000", "162919.950000", "162921.440000", "162922.930000", "162924.420000", "162925.910000", "162927.400000"],
      "ContentTime": ["161947.707000", "161947.710000", "161947.713000", "161947.716000", "161947.719000", "161947.722000", "161947.724000", "161947.727000", "161947.730000", "161947.733000", "161947.736000", "161947.739000", "161947.742000", "161947.745000", "161947.747000", "161947.750000", "161947.753000", "161947.756000", "161947.759000", "161947.762000", "161947.765000", "162007.676000", "162007.679000", "162007.682000", "162007.696000", "162007.698000", "162007.701000", "162007.704000", "162007.707000", "162007.710000", "162007.713000", "162007.715000", "162007.719000", "162007.721000", "162007.724000", "162007.727000", "162007.730000", "162007.733000", "162007.735000", "162007.738000", "162007.741000", "162007.744000", "162027.676000", "162027.679000", "162027.682000", "162027.684000", "162027.687000", "162027.690000", "162027.693000", "162027.696000", "162027.699000", "162027.702000", "162027.705000", "162027.707000", "162027.710000", "162027.713000", "162027.716000", "162027.719000", "162027.722000", "162027.724000", "162027.727000", "162027.730000", "162047.675000", "162047.678000", "162047.681000", "162047.684000", "162047.686000", "162047.689000", "162047.692000", "162047.695000", "162047.698000", "162047.701000", "162047.704000", "162047.706000", "162047.709000", "162047.712000", "162047.715000", "162047.718000", "162047.721000", "162047.723000", "162047.726000", "162047.729000", "162107.675000", "162107.678000", "162107.681000", "162107.684000", "162107.686000", "162107.689000", "162107.692000", "162107.695000", "162107.698000", "162107.701000", "162107.704000", "162107.706000", "162107.709000", "162107.712000", "162107.715000", "162107.718000", "162107.721000", "162107.723000", "162107.726000", "162107.729000", "162147.676000", "162147.679000", "162147.682000", "162147.684000", "162147.692000", "162147.695000", "162147.698000", "162147.701000", "162147.704000", "162147.707000", "162147.710000", "162147.712000", "162147.715000", "162147.718000", "162147.721000", "162147.724000", "162147.735000", "162147.737000", "162147.740000", "162147.743000", "162147.746000", "162147.749000", "162147.752000", "162147.754000", "162147.757000", "162147.760000", "162147.763000", "162147.766000", "162147.769000", "162207.676000", "162207.679000", "162207.682000", "162207.685000", "162207.688000", "162207.691000", "162207.693000", "162207.696000", "162207.699000", "162207.702000", "162207.705000", "162207.708000", "162207.710000", "162247.676000", "162247.679000", "162247.682000", "162247.685000", "162247.688000", "162247.690000", "162247.693000", "162247.696000", "162247.699000", "162247.702000", "162247.705000", "162247.708000", "162247.711000", "162247.713000", "162247.716000", "162247.719000", "162247.722000", "162247.725000", "162247.728000", "162247.731000", "162247.734000", "162247.736000", "162247.739000", "162247.742000", "162247.745000", "162247.748000", "162247.751000", "162327.675000", "162327.678000", "162327.691000", "162327.694000", "162327.697000", "162327.700000", "162327.703000", "162327.706000", "162327.708000", "162327.711000", "162327.714000", "162327.717000", "162327.720000", "162327.723000", "162327.726000", "162327.729000", "162327.732000", "162327.735000", "162327.737000", "162327.740000", "162327.743000", "162327.746000", "162327.749000", "162327.752000", "162327.754000", "162327.757000", "162327.760000", "162407.676000", "162407.679000", "162407.689000", "162407.692000", "162407.695000", "162407.698000", "162407.701000", "162407.704000", "162407.707000", "162407.710000", "162407.712000", "162407.715000", "162407.718000", "162407.721000", "162407.724000", "162407.727000", "162407.730000", "162407.733000", "162407.735000", "162407.738000", "162407.741000", "162407.744000", "162407.747000", "162407.750000", "162407.753000", "162407.755000", "162447.676000", "162447.679000", "162447.682000", "162447.685000", "162447.687000", "162447.690000", "162447.693000", "162447.696000", "162447.699000", "162447.702000", "162447.705000", "162447.707000", "162447.710000", "162447.713000", "162447.716000", "162447.719000", "162447.722000", "162447.725000", "162447.728000", "162447.731000", "162447.734000", "162447.736000", "162447.739000", "162447.742000", "162447.745000", "162447.748000", "162447.751000", "162527.675000", "162527.678000", "162527.681000", "162527.684000", "162527.686000", "162527.689000", "162527.692000", "162527.695000", "162527.698000", "162527.701000", "162527.704000", "162527.706000", "162527.709000", "162527.712000", "162527.715000", "162527.718000", "162527.721000", "162527.724000", "162527.726000", "162527.729000", "162527.732000", "162527.735000", "162527.738000", "162527.741000", "162527.743000", "162527.746000", "162527.749000", "162607.675000", "162607.678000", "162607.681000", "162607.684000", "162607.687000", "162607.689000", "162607.692000", "162607.695000", "162607.698000", "162607.701000", "162607.704000", "162607.707000", "162607.710000", "162607.713000", "162607.715000", "162607.718000", "162607.721000", "162607.724000", "162607.727000", "162607.730000", "162607.733000", "162607.736000", "162607.738000", "162607.741000", "162607.744000", "162607.747000", "162607.750000", "162647.676000", "162647.696000", "162647.698000", "162647.702000", "162647.704000", "162647.707000", "162647.710000", "162647.713000", "162647.716000", "162647.719000", "162647.721000", "162647.724000", "162647.733000", "162647.736000", "162647.739000", "162647.742000", "162647.745000", "162647.747000", "162647.750000", "162647.753000", "162647.756000", "162647.759000", "162647.762000", "162647.765000", "162647.767000", "162647.770000", "162647.773000", "162727.676000", "162727.679000", "162727.682000", "162727.685000", "162727.688000", "162727.690000", "162727.693000", "162727.696000", "162727.699000", "162727.702000", "162727.705000", "162727.708000", "162727.711000", "162727.713000", "162727.716000", "162727.719000", "162727.722000", "162727.725000", "162727.728000", "162727.731000", "162727.733000", "162727.736000", "162727.739000", "162727.742000", "162727.745000", "162727.748000", "162727.751000", "162807.675000", "162807.678000", "162807.690000", "162807.693000", "162807.696000", "162807.699000", "162807.702000", "162807.705000", "162807.708000", "162807.711000", "162807.714000", "162807.717000", "162807.720000", "162807.723000", "162807.726000", "162807.729000", "162807.731000", "162807.734000", "162807.737000", "162807.740000", "162807.743000", "162807.746000", "162807.749000", "162807.751000", "162807.754000", "162807.757000", "162807.760000", "162847.676000", "162847.679000", "162847.692000", "162847.695000", "162847.697000", "162847.700000", "162847.703000", "162847.706000", "162847.709000", "162847.712000", "162847.715000", "162847.718000", "162847.721000", "162847.724000", "162847.727000", "162847.730000", "162847.732000", "162847.735000", "162847.738000", "162847.741000", "162847.744000", "162847.747000", "162847.750000", "162847.752000", "162847.755000", "162847.758000", "162927.676000", "162927.679000", "162927.682000", "162927.685000", "162927.688000", "162927.691000", "162927.694000", "162927.696000", "162927.699000", "162927.702000", "162927.705000", "162927.708000", "162927.711000", "162927.713000", "162927.716000", "162927.719000", "162927.722000", "162927.725000", "162927.728000", "162927.731000", "162927.734000", "162927.736000", "162927.739000", "162927.742000", "162927.745000", "162927.748000", "162927.751000", "162930.526000", "162930.529000"],
