{
  "AcquisitionMatrixPE": 104,
  "AcquisitionNumber": 1,
  "AcquisitionTime": "15:35:8.077500",
  "BandwidthPerPixelPhaseEncode": 17.17,
  "BaseResolution": 104,
  "BodyPartExamined": "BRAIN",
  "CoilString": "HC1-7;NC1_2",
  "ConsistencyInfo": "N4_VE11C_LATEST_20160120",
  "ConversionSoftware": "dcm2niix",
  "ConversionSoftwareVersion": "v1.0.20190902",
  "DerivedVendorReportedEchoSpacing": 0.000560011,
  "DeviceSerialNumber": "167006",
  "DwellTime": 2.1e-06,
  "EchoTime": 0.037,
  "EchoTrainLength": 104,
  "EffectiveEchoSpacing": 0.000560011,
  "FlipAngle": 52,
  "ImageComments": "Unaliased_MB4_PE3_LB",
  "ImageOrientationPatientDICOM": [0.99968, -0.0252111, 0.00186216, 0.0239079, 0.918922, -0.393713],
  "ImageType": [
    "ORIGINAL",
    "PRIMARY",
    "M",
    "MB",
    "ND",
    "MOSAIC"
],
  "ImagingFrequency": 123.259,
  "InPlanePhaseEncodingDirectionDICOM": "COL",
  "InstitutionAddress": "Chemin_Queen-Mary_4565_Montreal_District_CA_H3W_1W5",
  "InstitutionName": "IUGM",
  "InstitutionalDepartmentName": "Department",
  "MRAcquisitionType": "2D",
  "MagneticFieldStrength": 3,
  "Manufacturer": "Siemens",
  "ManufacturersModelName": "Prisma_fit",
  "Modality": "MR",
  "MultibandAccelerationFactor": 4,
  "PartialFourier": 1,
  "PatientPosition": "HFS",
  "PercentPhaseFOV": 100,
  "PhaseEncodingDirection": "j",
  "PhaseEncodingSteps": 104,
  "PhaseResolution": 1,
  "PixelBandwidth": 2290,
  "ProcedureStepDescription": "games_shinobi",
  "ProtocolName": "func_task-shinobi_run-2",
  "PulseSequenceDetails": "%CustomerSeq%_cmrr_mbep2d_bold",
  "ReceiveCoilActiveElements": "HC1-7;NC1,2",
  "ReceiveCoilName": "HeadNeck_64",
  "ReconMatrixPE": 104,
  "RepetitionTime": 1.49,
  "SAR": 0.0303155,
  "ScanOptions": "FS",
  "ScanningSequence": "EP",
  "SequenceName": "epfid2d1_104",
  "SequenceVariant": "SK_SS",
  "SeriesDescription": "func_task-shinobi_run-2",
  "SeriesNumber": 20,
  "ShimSetting": [639, -7263, -8840, 563, 32, -254, -114, -14],
  "SliceThickness": 2,
  "SliceTiming": [0, 0.785, 0.0975, 0.8825, 0.195, 0.98, 0.295, 1.0775, 0.3925, 1.175, 0.49, 1.275, 0.5875, 1.3725, 0.685, 0, 0.785, 0.0975, 0.8825, 0.195, 0.98, 0.295, 1.0775, 0.3925, 1.175, 0.49, 1.275, 0.5875, 1.3725, 0.685, 0, 0.785, 0.0975, 0.8825, 0.195, 0.98, 0.295, 1.0775, 0.3925, 1.175, 0.49, 1.275, 0.5875, 1.3725, 0.685, 0, 0.785, 0.0975, 0.8825, 0.195, 0.98, 0.295, 1.0775, 0.3925, 1.175, 0.49, 1.275, 0.5875, 1.3725, 0.685],
  "SoftwareVersions": "syngo_MR_E11",
  "SpacingBetweenSlices": 2,
  "StationName": "MRC35049",
  "TaskName": "shinobi",
  "TotalReadoutTime": 0.0576811,
  "TxRefAmp": 218.826,
  "WipMemBlock": "7c93633a-bc71-49f6-890b-7a98bcbb5031||Sequence: R016 ve11c/master r/e634e98; Dec 19 2017 11:00:25 by eja",
  "dcmmeta_affine": [
    [-1.9993607997894287, 0.0478157140314579, -0.016429530456662178, 103.82215881347656],
    [0.05042223259806633, 1.8378448486328125, -0.7872635126113892, -63.12803268432617],
    [0.003724318463355303, 0.7874261140823364, 1.8384630680084229, -72.35066223144531],
    [0.0, 0.0, 0.0, 1.0]
],
  "dcmmeta_reorient_transform": [
    [0.0, -1.0, 0.0, 103.0],
    [1.0, 0.0, 0.0, 0.0],
    [0.0, 0.0, 1.0, 0.0],
    [0.0, 0.0, 0.0, 1.0]
],
  "dcmmeta_shape": [104, 104, 60, 497],
  "dcmmeta_slice_dim": 2,
  "dcmmeta_version": 0.6,
  "global": {
    "const": {
      "AcquisitionMatrix": [104, 0, 0, 104],
      "AngioFlag": "N",
      "BitsAllocated": 16,
      "BitsStored": 16,
      "BodyPartExamined": "BRAIN",
      "Columns": 832,
      "EchoNumbers": 1,
      "EchoTime": 37.0,
      "EchoTrainLength": 104,
      "FlipAngle": 52.0,
      "HighBit": 15,
      "ImageOrientationPatient": [0.99968041494127, -0.0252111155221, 0.00186215922611, 0.0239078566826, 0.9189224359047, -0.393713056908],
      "ImagePositionPatient": [-853.91943737146, -776.79182902584, 294.02168065121],
      "ImageType": [
        "ORIGINAL",
        "PRIMARY",
        "M",
        "MB",
        "ND",
        "MOSAIC"
],
      "ImagedNucleus": "1H",
      "ImagingFrequency": 123.258978,
      "InPlanePhaseEncodingDirection": "COL",
      "MRAcquisitionType": "2D",
      "MagneticFieldStrength": 3.0,
      "Manufacturer": "SIEMENS",
      "ManufacturerModelName": "Prisma_fit",
      "Modality": "MR",
      "NumberOfAverages": 1.0,
      "NumberOfPhaseEncodingSteps": 104,
      "PercentPhaseFieldOfView": 100.0,
      "PercentSampling": 100.0,
      "PerformedProcedureStepStartTime": "150011.423000",
      "PhotometricInterpretation": "MONOCHROME2",
      "PixelBandwidth": 2290.0,
      "PixelRepresentation": 0,
      "PixelSpacing": [2.0, 2.0],
      "ProtocolName": "func_task-shinobi_run-2",
      "RepetitionTime": 1490.0,
      "Rows": 832,
      "SAR": 0.03031545251838,
      "SamplesPerPixel": 1,
      "ScanOptions": "FS",
      "ScanningSequence": "EP",
      "SequenceName": "epfid2d1_104",
      "SequenceVariant": [
        "SK",
        "SS"
],
      "SeriesDescription": "func_task-shinobi_run-2",
      "SeriesNumber": 20,
      "SeriesTime": "153646.921000",
      "SliceLocation": -42.510684533143,
      "SliceThickness": 2.0,
      "SmallestImagePixelValue": 0,
      "SoftwareVersions": "syngo MR E11",
      "SpacingBetweenSlices": 2.0000000258678,
      "SpecificCharacterSet": "ISO_IR 100",
      "StudyID": "1",
      "StudyTime": "150011.363000",
      "TransmitCoilName": "Body",
      "VariableFlipAngleFlag": "N",
      "WindowCenterWidthExplanation": "Algo1",
      "dBdt": 0.0},
    "slices": {}
  },
  "time": {
    "samples": {
      "AcquisitionNumber": [1, 2, 3, 4, 5, 6, 7, 8, 9, 10, 11, 12, 13, 14, 15, 16, 17, 18, 19, 20, 21, 22, 23, 24, 25, 26, 27, 28, 29, 30, 31, 32, 33, 34, 35, 36, 37, 38, 39, 40, 41, 42, 43, 44, 45, 46, 47, 48, 49, 50, 51, 52, 53, 54, 55, 56, 57, 58, 59, 60, 61, 62, 63, 64, 65, 66, 67, 68, 69, 70, 71, 72, 73, 74, 75, 76, 77, 78, 79, 80, 81, 82, 83, 84, 85, 86, 87, 88, 89, 90, 91, 92, 93, 94, 95, 96, 97, 98, 99, 100, 101, 102, 103, 104, 105, 106, 107, 108, 109, 110, 111, 112, 113, 114, 115, 116, 117, 118, 119, 120, 121, 122, 123, 124, 125, 126, 127, 128, 129, 130, 131, 132, 133, 134, 135, 136, 137, 138, 139, 140, 141, 142, 143, 144, 145, 146, 147, 148, 149, 150, 151, 152, 153, 154, 155, 156, 157, 158, 159, 160, 161, 162, 163, 164, 165, 166, 167, 168, 169, 170, 171, 172, 173, 174, 175, 176, 177, 178, 179, 180, 181, 182, 183, 184, 185, 186, 187, 188, 189, 190, 191, 192, 193, 194, 195, 196, 197, 198, 199, 200, 201, 202, 203, 204, 205, 206, 207, 208, 209, 210, 211, 212, 213, 214, 215, 216, 217, 218, 219, 220, 221, 222, 223, 224, 225, 226, 227, 228, 229, 230, 231, 232, 233, 234, 235, 236, 237, 238, 239, 240, 241, 242, 243, 244, 245, 246, 247, 248, 249, 250, 251, 252, 253, 254, 255, 256, 257, 258, 259, 260, 261, 262, 263, 264, 265, 266, 267, 268, 269, 270, 271, 272, 273, 274, 275, 276, 277, 278, 279, 280, 281, 282, 283, 284, 285, 286, 287, 288, 289, 290, 291, 292, 293, 294, 295, 296, 297, 298, 299, 300, 301, 302, 303, 304, 305, 306, 307, 308, 309, 310, 311, 312, 313, 314, 315, 316, 317, 318, 319, 320, 321, 322, 323, 324, 325, 326, 327, 328, 329, 330, 331, 332, 333, 334, 335, 336, 337, 338, 339, 340, 341, 342, 343, 344, 345, 346, 347, 348, 349, 350, 351, 352, 353, 354, 355, 356, 357, 358, 359, 360, 361, 362, 363, 364, 365, 366, 367, 368, 369, 370, 371, 372, 373, 374, 375, 376, 377, 378, 379, 380, 381, 382, 383, 384, 385, 386, 387, 388, 389, 390, 391, 392, 393, 394, 395, 396, 397, 398, 399, 400, 401, 402, 403, 404, 405, 406, 407, 408, 409, 410, 411, 412, 413, 414, 415, 416, 417, 418, 419, 420, 421, 422, 423, 424, 425, 426, 427, 428, 429, 430, 431, 432, 433, 434, 435, 436, 437, 438, 439, 440, 441, 442, 443, 444, 445, 446, 447, 448, 449, 450, 451, 452, 453, 454, 455, 456, 457, 458, 459, 460, 461, 462, 463, 464, 465, 466, 467, 468, 469, 470, 471, 472, 473, 474, 475, 476, 477, 478, 479, 480, 481, 482, 483, 484, 485, 486, 487, 488, 489, 490, 491, 492, 493, 494, 495, 496, 497],
      "AcquisitionTime": ["153508.077500", "153509.567500", "153511.057500", "153512.547500", "153514.037500", "153515.527500", "153517.017500", "153518.507500", "153519.997500", "153521.487500", "153522.977500", "153524.467500", "153525.957500", "153527.447500", "153528.937500", "153530.427500", "153531.917500", "153533.407500", "153534.897500", "153536.387500", "153537.877500", "153539.367500", "153540.857500", "153542.347500", "153543.837500", "153545.327500", "153546.817500", "153548.307500", "153549.797500", "153551.287500", "153552.777500", "153554.267500", "153555.757500", "153557.247500", "153558.737500", "153600.227500", "153601.717500", "153603.207500", "153604.697500", "153606.187500", "153607.677500", "153609.167500", "153610.657500", "153612.147500", "153613.637500", "153615.127500", "153616.617500", "153618.107500", "153619.597500", "153621.087500", "153622.577500", "153624.067500", "153625.557500", "153627.047500", "153628.537500", "153630.027500", "153631.517500", "153633.007500", "153634.497500", "153635.987500", "153637.477500", "153638.967500", "153640.457500", "153641.947500", "153643.437500", "153644.927500", "153646.417500", "153647.907500", "153649.397500", "153650.887500", "153652.377500", "153653.867500", "153655.357500", "153656.847500", "153658.337500", "153659.827500", "153701.317500", "153702.807500", "153704.297500", "153705.787500", "153707.277500", "153708.767500", "153710.257500", "153711.747500", "153713.237500", "153714.727500", "153716.217500", "153717.707500", "153719.197500", "153720.687500", "153722.177500", "153723.667500", "153725.157500", "153726.647500", "153728.137500", "153729.627500", "153731.117500", "153732.607500", "153734.097500", "153735.587500", "153737.077500", "153738.567500", "153740.057500", "153741.547500", "153743.037500", "153744.527500", "153746.017500", "153747.507500", "153748.997500", "153750.487500", "153751.977500", "153753.467500", "153754.957500", "153756.447500", "153757.937500", "153759.427500", "153800.917500", "153802.407500", "153803.897500", "153805.387500", "153806.877500", "153808.367500", "153809.857500", "153811.347500", "153812.837500", "153814.327500", "153815.817500", "153817.307500", "153818.797500", "153820.287500", "153821.777500", "153823.267500", "153824.757500", "153826.247500", "153827.737500", "153829.227500", "153830.717500", "153832.207500", "153833.697500", "153835.187500", "153836.677500", "153838.167500", "153839.657500", "153841.147500", "153842.637500", "153844.127500", "153845.617500", "153847.107500", "153848.597500", "153850.087500", "153851.577500", "153853.067500", "153854.557500", "153856.047500", "153857.537500", "153859.027500", "153900.517500", "153902.007500", "153903.497500", "153904.987500", "153906.477500", "153907.967500", "153909.457500", "153910.947500", "153912.437500", "153913.927500", "153915.417500", "153916.907500", "153918.397500", "153919.887500", "153921.377500", "153922.867500", "153924.357500", "153925.847500", "153927.337500", "153928.827500", "153930.317500", "153931.807500", "153933.297500", "153934.787500", "153936.277500", "153937.767500", "153939.257500", "153940.747500", "153942.237500", "153943.727500", "153945.217500", "153946.707500", "153948.197500", "153949.687500", "153951.177500", "153952.667500", "153954.157500", "153955.647500", "153957.137500", "153958.627500", "154000.117500", "154001.607500", "154003.097500", "154004.587500", "154006.077500", "154007.567500", "154009.057500", "154010.547500", "154012.037500", "154013.527500", "154015.017500", "154016.507500", "154017.997500", "154019.487500", "154020.977500", "154022.467500", "154023.957500", "154025.447500", "154026.937500", "154028.427500", "154029.917500", "154031.407500", "154032.897500", "154034.387500", "154035.877500", "154037.367500", "154038.857500", "154040.347500", "154041.837500", "154043.327500", "154044.817500", "154046.307500", "154047.797500", "154049.287500", "154050.777500", "154052.267500", "154053.757500", "154055.247500", "154056.737500", "154058.227500", "154059.717500", "154101.207500", "154102.697500", "154104.187500", "154105.677500", "154107.167500", "154108.657500", "154110.147500", "154111.637500", "154113.127500", "154114.617500", "154116.107500", "154117.597500", "154119.087500", "154120.577500", "154122.067500", "154123.557500", "154125.047500", "154126.537500", "154128.027500", "154129.517500", "154131.007500", "154132.497500", "154133.987500", "154135.477500", "154136.967500", "154138.457500", "154139.947500", "154141.437500", "154142.927500", "154144.417500", "154145.907500", "154147.397500", "154148.887500", "154150.377500", "154151.867500", "154153.357500", "154154.847500", "154156.337500", "154157.827500", "154159.317500", "154200.807500", "154202.297500", "154203.787500", "154205.277500", "154206.767500", "154208.257500", "154209.747500", "154211.237500", "154212.727500", "154214.217500", "154215.707500", "154217.197500", "154218.687500", "154220.177500", "154221.667500", "154223.157500", "154224.647500", "154226.137500", "154227.627500", "154229.117500", "154230.607500", "154232.097500", "154233.587500", "154235.077500", "154236.567500", "154238.057500", "154239.547500", "154241.037500", "154242.527500", "154244.017500", "154245.507500", "154246.997500", "154248.487500", "154249.977500", "154251.467500", "154252.957500", "154254.447500", "154255.937500", "154257.427500", "154258.917500", "154300.407500", "154301.897500", "154303.387500", "154304.877500", "154306.367500", "154307.857500", "154309.347500", "154310.837500", "154312.327500", "154313.817500", "154315.307500", "154316.797500", "154318.287500", "154319.777500", "154321.267500", "154322.757500", "154324.247500", "154325.737500", "154327.227500", "154328.717500", "154330.207500", "154331.697500", "154333.187500", "154334.677500", "154336.167500", "154337.657500", "154339.147500", "154340.637500", "154342.127500", "154343.617500", "154345.107500", "154346.597500", "154348.087500", "154349.577500", "154351.067500", "154352.557500", "154354.047500", "154355.537500", "154357.027500", "154358.517500", "154400.007500", "154401.497500", "154402.987500", "154404.477500", "154405.967500", "154407.457500", "154408.947500", "154410.437500", "154411.927500", "154413.417500", "154414.907500", "154416.397500", "154417.887500", "154419.377500", "154420.867500", "154422.357500", "154423.847500", "154425.337500", "154426.827500", "154428.317500", "154429.807500", "154431.297500", "154432.787500", "154434.277500", "154435.767500", "154437.257500", "154438.747500", "154440.237500", "154441.727500", "154443.217500", "154444.707500", "154446.197500", "154447.687500", "154449.177500", "154450.667500", "154452.157500", "154453.647500", "154455.137500", "154456.627500", "154458.117500", "154459.607500", "154501.097500", "154502.587500", "154504.077500", "154505.567500", "154507.057500", "154508.547500", "154510.037500", "154511.527500", "154513.017500", "154514.507500", "154515.997500", "154517.487500", "154518.977500", "154520.467500", "154521.957500", "154523.447500", "154524.937500", "154526.427500", "154527.917500", "154529.407500", "154530.897500", "154532.387500", "154533.877500", "154535.367500", "154536.857500", "154538.347500", "154539.837500", "154541.327500", "154542.817500", "154544.307500", "154545.797500", "154547.287500", "154548.777500", "154550.267500", "154551.757500", "154553.247500", "154554.737500", "154556.227500", "154557.717500", "154559.207500", "154600.697500", "154602.187500", "154603.677500", "154605.167500", "154606.657500", "154608.147500", "154609.637500", "154611.127500", "154612.617500", "154614.107500", "154615.597500", "154617.087500", "154618.577500", "154620.067500", "154621.557500", "154623.047500", "154624.537500", "154626.027500", "154627.517500", "154629.007500", "154630.497500", "154631.987500", "154633.477500", "154634.967500", "154636.457500", "154637.947500", "154639.437500", "154640.927500", "154642.417500", "154643.907500", "154645.397500", "154646.887500", "154648.377500", "154649.867500", "154651.357500", "154652.847500", "154654.337500", "154655.827500", "154657.317500", "154658.807500", "154700.297500", "154701.787500", "154703.277500", "154704.767500", "154706.257500", "154707.747500", "154709.237500", "154710.727500", "154712.217500", "154713.707500", "154715.197500", "154716.687500", "154718.177500", "154719.667500", "154721.157500", "154722.647500", "154724.137500", "154725.627500", "154727.117500"],
      "ContentTime": ["153646.924000", "153646.927000", "153646.930000", "153646.933000", "153646.936000", "153646.938000", "153646.941000", "153646.944000", "153646.947000", "153646.950000", "153646.952000", "153646.955000", "153646.958000", "153646.961000", "153646.964000", "153646.966000", "153646.969000", "153646.972000", "153646.975000", "153646.978000", "153646.980000", "153646.983000", "153646.986000", "153646.993000", "153646.996000", "153706.894000", "153706.897000", "153706.900000", "153706.902000", "153706.905000", "153706.908000", "153706.911000", "153706.914000", "153706.916000", "153706.919000", "153706.922000", "153706.925000", "153706.927000", "153706.930000", "153706.933000", "153706.936000", "153706.939000", "153706.941000", "153706.944000", "153706.947000", "153726.895000", "153726.898000", "153726.901000", "153726.903000", "153726.906000", "153726.909000", "153726.912000", "153726.915000", "153726.917000", "153726.920000", "153726.923000", "153726.926000", "153726.928000", "153726.931000", "153726.934000", "153726.937000", "153726.939000", "153726.942000", "153726.945000", "153726.948000", "153746.895000", "153746.898000", "153746.900000", "153746.903000", "153746.906000", "153746.909000", "153746.912000", "153746.915000", "153746.917000", "153746.920000", "153746.923000", "153746.926000", "153746.929000", "153746.931000", "153746.934000", "153746.937000", "153746.940000", "153746.942000", "153746.945000", "153746.948000", "153806.895000", "153806.898000", "153806.901000", "153806.903000", "153806.906000", "153806.909000", "153806.912000", "153806.915000", "153806.917000", "153806.920000", "153806.923000", "153806.926000", "153806.928000", "153806.931000", "153806.934000", "153806.937000", "153806.940000", "153806.942000", "153806.945000", "153806.948000", "153826.894000", "153826.897000", "153826.900000", "153826.902000", "153826.905000", "153826.908000", "153826.911000", "153826.914000", "153826.916000", "153826.919000", "153826.922000", "153826.925000", "153826.928000", "153826.930000", "153826.933000", "153826.936000", "153826.939000", "153826.942000", "153826.944000", "153826.947000", "153846.894000", "153846.897000", "153846.900000", "153846.903000", "153846.916000", "153846.919000", "153846.922000", "153846.925000", "153846.927000", "153846.930000", "153846.933000", "153846.936000", "153846.939000", "153846.942000", "153846.945000", "153846.948000", "153846.950000", "153846.953000", "153846.956000", "153846.959000", "153846.962000", "153926.894000", "153926.897000", "153926.900000", "153926.902000", "153926.905000", "153926.908000", "153926.911000", "153926.914000", "153926.916000", "153926.919000", "153926.922000", "153926.925000", "153926.928000", "153926.931000", "153926.940000", "153926.943000", "153926.946000", "153926.949000", "153926.952000", "153926.954000", "153926.957000", "153926.960000", "153926.963000", "153926.966000", "153926.968000", "153926.971000", "153926.974000", "154006.895000", "154006.898000", "154006.901000", "154006.903000", "154006.906000", "154006.909000", "154006.912000", "154006.915000", "154006.918000", "154006.921000", "154006.924000", "154006.926000", "154006.929000", "154006.932000", "154006.935000", "154006.938000", "154006.940000", "154006.943000", "154006.946000", "154006.949000", "154006.952000", "154006.954000", "154006.957000", "154006.960000", "154006.963000", "154006.966000", "154006.969000", "154026.895000", "154026.898000", "154026.901000", "154026.904000", "154026.906000", "154026.909000", "154026.912000", "154026.915000", "154026.918000", "154026.921000", "154026.923000", "154026.926000", "154026.929000", "154106.894000", "154106.897000", "154106.900000", "154106.903000", "154106.905000", "154106.908000", "154106.911000", "154106.914000", "154106.917000", "154106.920000", "154106.923000", "154106.925000", "154106.928000", "154106.931000", "154106.934000", "154106.937000", "154106.939000", "154106.942000", "154106.945000", "154106.948000", "154106.951000", "154106.953000", "154106.956000", "154106.959000", "154106.962000", "154106.965000", "154106.968000", "154146.894000", "154146.897000", "154146.900000", "154146.903000", "154146.905000", "154146.908000", "154146.911000", "154146.914000", "154146.917000", "154146.919000", "154146.922000", "154146.925000", "154146.928000", "154146.931000", "154146.934000", "154146.936000", "154146.939000", "154146.942000", "154146.945000", "154146.947000", "154146.950000", "154146.953000", "154146.956000", "154146.959000", "154146.962000", "154146.964000", "154146.967000", "154226.895000", "154226.898000", "154226.901000", "154226.903000", "154226.906000", "154226.909000", "154226.912000", "154226.915000", "154226.918000", "154226.920000", "154226.923000", "154226.926000", "154226.929000", "154226.932000", "154226.935000", "154226.937000", "154226.940000", "154226.943000", "154226.946000", "154226.949000", "154226.952000", "154226.954000", "154226.957000", "154226.960000", "154226.963000", "154226.966000", "154226.969000", "154306.894000", "154306.897000", "154306.900000", "154306.903000", "154306.905000", "154306.908000", "154306.911000", "154306.914000", "154306.917000", "154306.920000", "154306.922000", "154306.925000", "154306.928000", "154306.931000", "154306.934000", "154306.936000", "154306.939000", "154306.942000", "154306.945000", "154306.948000", "154306.951000", "154306.954000", "154306.956000", "154306.959000", "154306.962000", "154306.965000", "154306.968000", "154346.894000", "154346.897000", "154346.900000", "154346.903000", "154346.906000", "154346.909000", "154346.912000", "154346.915000", "154346.918000", "154346.921000", "154346.924000", "154346.926000", "154346.929000", "154346.932000", "154346.935000", "154346.938000", "154346.941000", "154346.943000", "154346.946000", "154346.949000", "154346.952000", "154346.955000", "154346.965000", "154346.968000", "154346.977000", "154346.980000", "154426.895000", "154426.898000", "154426.901000", "154426.904000", "154426.906000", "154426.909000", "154426.912000", "154426.915000", "154426.918000", "154426.921000", "154426.924000", "154426.927000", "154426.929000", "154426.932000", "154426.935000", "154426.938000", "154426.941000", "154426.943000", "154426.946000", "154426.949000", "154426.952000", "154426.955000", "154426.958000", "154426.960000", "154426.963000", "154426.966000", "154426.969000", "154506.895000", "154506.898000", "154506.901000", "154506.903000", "154506.906000", "154506.909000", "154506.912000", "154506.915000", "154506.918000", "154506.920000", "154506.923000", "154506.926000", "154506.929000", "154506.932000", "154506.935000", "154506.937000", "154506.940000", "154506.943000", "154506.946000", "154506.949000", "154506.952000", "154506.954000", "154506.957000", "154506.960000", "154506.963000", "154506.966000", "154506.968000", "154546.894000", "154546.897000", "154546.900000", "154546.903000", "154546.906000", "154546.908000", "154546.911000", "154546.914000", "154546.917000", "154546.920000", "154546.923000", "154546.925000", "154546.928000", "154546.931000", "154546.934000", "154546.937000", "154546.940000", "154546.942000", "154546.945000", "154546.948000", "154546.951000", "154546.954000", "154546.957000", "154546.959000", "154546.962000", "154546.965000", "154546.968000", "154626.894000", "154626.897000", "154626.900000", "154626.903000", "154626.906000", "154626.908000", "154626.911000", "154626.914000", "154626.917000", "154626.920000", "154626.922000", "154626.925000", "154626.928000", "154626.931000", "154626.934000", "154626.937000", "154626.940000", "154626.942000", "154626.945000", "154626.948000", "154626.951000", "154626.954000", "154626.956000", "154626.959000", "154626.962000", "154626.965000", "154626.968000", "154706.895000", "154706.898000", "154706.901000", "154706.904000", "154706.907000", "154706.909000", "154706.912000", "154706.915000", "154706.918000", "154706.920000", "154706.923000", "154706.926000", "154706.929000", "154706.932000", "154706.934000", "154706.937000", "154706.940000", "154706.943000", "154706.946000", "154706.949000", "154706.951000", "154706.954000", "154706.957000", "154706.960000", "154706.963000", "154706.965000", "154706.968000", "154729.543000", "154729.557000", "154729.560000", "154729.563000", "154729.566000", "154729.569000", "154729.571000", "154729.574000", "154729.577000", "154729.580000", "154729.583000", "154729.586000", "154729.588000", "154729.591000", "154729.594000"],
