{
  "AcquisitionMatrixPE": 104,
  "AcquisitionNumber": 1,
  "AcquisitionTime": "15:48:2.120000",
  "BandwidthPerPixelPhaseEncode": 17.17,
  "BaseResolution": 104,
  "BodyPartExamined": "BRAIN",
  "CoilString": "HC1-7;NC1_2",
  "ConsistencyInfo": "N4_VE11C_LATEST_20160120",
  "ConversionSoftware": "dcm2niix",
  "ConversionSoftwareVersion": "v1.0.20190902",
  "DerivedVendorReportedEchoSpacing": 0.000560011,
  "DeviceSerialNumber": "167006",
  "DwellTime": 2.1e-06,
  "EchoTime": 0.037,
  "EchoTrainLength": 104,
  "EffectiveEchoSpacing": 0.000560011,
  "FlipAngle": 52,
  "ImageComments": "Unaliased_MB4_PE3_LB",
  "ImageOrientationPatientDICOM": [0.99968, -0.0252111, 0.00186216, 0.0239079, 0.918922, -0.393713],
  "ImageType": [
    "ORIGINAL",
    "PRIMARY",
    "M",
    "MB",
    "ND",
    "MOSAIC"
],
  "ImagingFrequency": 123.259,
  "InPlanePhaseEncodingDirectionDICOM": "COL",
  "InstitutionAddress": "Chemin_Queen-Mary_4565_Montreal_District_CA_H3W_1W5",
  "InstitutionName": "IUGM",
  "InstitutionalDepartmentName": "Department",
  "MRAcquisitionType": "2D",
  "MagneticFieldStrength": 3,
  "Manufacturer": "Siemens",
  "ManufacturersModelName": "Prisma_fit",
  "Modality": "MR",
  "MultibandAccelerationFactor": 4,
  "PartialFourier": 1,
  "PatientPosition": "HFS",
  "PercentPhaseFOV": 100,
  "PhaseEncodingDirection": "j",
  "PhaseEncodingSteps": 104,
  "PhaseResolution": 1,
  "PixelBandwidth": 2290,
  "ProcedureStepDescription": "games_shinobi",
  "ProtocolName": "func_task-shinobi_run-3",
  "PulseSequenceDetails": "%CustomerSeq%_cmrr_mbep2d_bold",
  "ReceiveCoilActiveElements": "HC1-7;NC1,2",
  "ReceiveCoilName": "HeadNeck_64",
  "ReconMatrixPE": 104,
  "RepetitionTime": 1.49,
  "SAR": 0.0303155,
  "ScanOptions": "FS",
  "ScanningSequence": "EP",
  "SequenceName": "epfid2d1_104",
  "SequenceVariant": "SK_SS",
  "SeriesDescription": "func_task-shinobi_run-3",
  "SeriesNumber": 22,
  "ShimSetting": [639, -7263, -8840, 563, 32, -254, -114, -14],
  "SliceThickness": 2,
  "SliceTiming": [0, 0.7825, 0.0975, 0.88, 0.195, 0.9775, 0.2925, 1.0775, 0.39, 1.175, 0.49, 1.2725, 0.5875, 1.37, 0.685, 0, 0.7825, 0.0975, 0.88, 0.195, 0.9775, 0.2925, 1.0775, 0.39, 1.175, 0.49, 1.2725, 0.5875, 1.37, 0.685, 0, 0.7825, 0.0975, 0.88, 0.195, 0.9775, 0.2925, 1.0775, 0.39, 1.175, 0.49, 1.2725, 0.5875, 1.37, 0.685, 0, 0.7825, 0.0975, 0.88, 0.195, 0.9775, 0.2925, 1.0775, 0.39, 1.175, 0.49, 1.2725, 0.5875, 1.37, 0.685],
  "SoftwareVersions": "syngo_MR_E11",
  "SpacingBetweenSlices": 2,
  "StationName": "MRC35049",
  "TaskName": "shinobi",
  "TotalReadoutTime": 0.0576811,
  "TxRefAmp": 218.826,
  "WipMemBlock": "1141b2a3-943c-4e9f-8e89-77a46d655ed1||Sequence: R016 ve11c/master r/e634e98; Dec 19 2017 11:00:25 by eja",
  "dcmmeta_affine": [
    [-1.9993607997894287, 0.0478157140314579, -0.016429530456662178, 103.82215881347656],
    [0.05042223259806633, 1.8378448486328125, -0.7872635126113892, -63.12803268432617],
    [0.003724318463355303, 0.7874261140823364, 1.8384630680084229, -72.35066223144531],
    [0.0, 0.0, 0.0, 1.0]
],
  "dcmmeta_reorient_transform": [
    [0.0, -1.0, 0.0, 103.0],
    [1.0, 0.0, 0.0, 0.0],
    [0.0, 0.0, 1.0, 0.0],
    [0.0, 0.0, 0.0, 1.0]
],
  "dcmmeta_shape": [104, 104, 60, 553],
  "dcmmeta_slice_dim": 2,
  "dcmmeta_version": 0.6,
  "global": {
    "const": {
      "AcquisitionMatrix": [104, 0, 0, 104],
      "AngioFlag": "N",
      "BitsAllocated": 16,
      "BitsStored": 16,
      "BodyPartExamined": "BRAIN",
      "Columns": 832,
      "EchoNumbers": 1,
      "EchoTime": 37.0,
      "EchoTrainLength": 104,
      "FlipAngle": 52.0,
      "HighBit": 15,
      "ImageOrientationPatient": [0.99968041494127, -0.0252111155221, 0.00186215922611, 0.0239078566826, 0.9189224359047, -0.393713056908],
      "ImagePositionPatient": [-853.91943737146, -776.79182902584, 294.02168065121],
      "ImageType": [
        "ORIGINAL",
        "PRIMARY",
        "M",
        "MB",
        "ND",
        "MOSAIC"
],
      "ImagedNucleus": "1H",
      "ImagingFrequency": 123.258988,
      "InPlanePhaseEncodingDirection": "COL",
      "MRAcquisitionType": "2D",
      "MagneticFieldStrength": 3.0,
      "Manufacturer": "SIEMENS",
      "ManufacturerModelName": "Prisma_fit",
      "Modality": "MR",
      "NumberOfAverages": 1.0,
      "NumberOfPhaseEncodingSteps": 104,
      "PercentPhaseFieldOfView": 100.0,
      "PercentSampling": 100.0,
      "PerformedProcedureStepStartTime": "150011.423000",
      "PhotometricInterpretation": "MONOCHROME2",
      "PixelBandwidth": 2290.0,
      "PixelRepresentation": 0,
      "PixelSpacing": [2.0, 2.0],
      "ProtocolName": "func_task-shinobi_run-3",
      "RepetitionTime": 1490.0,
      "Rows": 832,
      "SAR": 0.03031545251838,
      "SamplesPerPixel": 1,
      "ScanOptions": "FS",
      "ScanningSequence": "EP",
      "SequenceName": "epfid2d1_104",
      "SequenceVariant": [
        "SK",
        "SS"
],
      "SeriesDescription": "func_task-shinobi_run-3",
      "SeriesNumber": 22,
      "SeriesTime": "154931.210000",
      "SliceLocation": -42.510684533143,
      "SliceThickness": 2.0,
      "SmallestImagePixelValue": 0,
      "SoftwareVersions": "syngo MR E11",
      "SpacingBetweenSlices": 2.0000000258678,
      "SpecificCharacterSet": "ISO_IR 100",
      "StudyID": "1",
      "StudyTime": "150011.363000",
      "TransmitCoilName": "Body",
      "VariableFlipAngleFlag": "N",
      "WindowCenterWidthExplanation": "Algo1",
      "dBdt": 0.0},
    "slices": {}
  },
  "time": {
    "samples": {
      "AcquisitionNumber": [1, 2, 3, 4, 5, 6, 7, 8, 9, 10, 11, 12, 13, 14, 15, 16, 17, 18, 19, 20, 21, 22, 23, 24, 25, 26, 27, 28, 29, 30, 31, 32, 33, 34, 35, 36, 37, 38, 39, 40, 41, 42, 43, 44, 45, 46, 47, 48, 49, 50, 51, 52, 53, 54, 55, 56, 57, 58, 59, 60, 61, 62, 63, 64, 65, 66, 67, 68, 69, 70, 71, 72, 73, 74, 75, 76, 77, 78, 79, 80, 81, 82, 83, 84, 85, 86, 87, 88, 89, 90, 91, 92, 93, 94, 95, 96, 97, 98, 99, 100, 101, 102, 103, 104, 105, 106, 107, 108, 109, 110, 111, 112, 113, 114, 115, 116, 117, 118, 119, 120, 121, 122, 123, 124, 125, 126, 127, 128, 129, 130, 131, 132, 133, 134, 135, 136, 137, 138, 139, 140, 141, 142, 143, 144, 145, 146, 147, 148, 149, 150, 151, 152, 153, 154, 155, 156, 157, 158, 159, 160, 161, 162, 163, 164, 165, 166, 167, 168, 169, 170, 171, 172, 173, 174, 175, 176, 177, 178, 179, 180, 181, 182, 183, 184, 185, 186, 187, 188, 189, 190, 191, 192, 193, 194, 195, 196, 197, 198, 199, 200, 201, 202, 203, 204, 205, 206, 207, 208, 209, 210, 211, 212, 213, 214, 215, 216, 217, 218, 219, 220, 221, 222, 223, 224, 225, 226, 227, 228, 229, 230, 231, 232, 233, 234, 235, 236, 237, 238, 239, 240, 241, 242, 243, 244, 245, 246, 247, 248, 249, 250, 251, 252, 253, 254, 255, 256, 257, 258, 259, 260, 261, 262, 263, 264, 265, 266, 267, 268, 269, 270, 271, 272, 273, 274, 275, 276, 277, 278, 279, 280, 281, 282, 283, 284, 285, 286, 287, 288, 289, 290, 291, 292, 293, 294, 295, 296, 297, 298, 299, 300, 301, 302, 303, 304, 305, 306, 307, 308, 309, 310, 311, 312, 313, 314, 315, 316, 317, 318, 319, 320, 321, 322, 323, 324, 325, 326, 327, 328, 329, 330, 331, 332, 333, 334, 335, 336, 337, 338, 339, 340, 341, 342, 343, 344, 345, 346, 347, 348, 349, 350, 351, 352, 353, 354, 355, 356, 357, 358, 359, 360, 361, 362, 363, 364, 365, 366, 367, 368, 369, 370, 371, 372, 373, 374, 375, 376, 377, 378, 379, 380, 381, 382, 383, 384, 385, 386, 387, 388, 389, 390, 391, 392, 393, 394, 395, 396, 397, 398, 399, 400, 401, 402, 403, 404, 405, 406, 407, 408, 409, 410, 411, 412, 413, 414, 415, 416, 417, 418, 419, 420, 421, 422, 423, 424, 425, 426, 427, 428, 429, 430, 431, 432, 433, 434, 435, 436, 437, 438, 439, 440, 441, 442, 443, 444, 445, 446, 447, 448, 449, 450, 451, 452, 453, 454, 455, 456, 457, 458, 459, 460, 461, 462, 463, 464, 465, 466, 467, 468, 469, 470, 471, 472, 473, 474, 475, 476, 477, 478, 479, 480, 481, 482, 483, 484, 485, 486, 487, 488, 489, 490, 491, 492, 493, 494, 495, 496, 497, 498, 499, 500, 501, 502, 503, 504, 505, 506, 507, 508, 509, 510, 511, 512, 513, 514, 515, 516, 517, 518, 519, 520, 521, 522, 523, 524, 525, 526, 527, 528, 529, 530, 531, 532, 533, 534, 535, 536, 537, 538, 539, 540, 541, 542, 543, 544, 545, 546, 547, 548, 549, 550, 551, 552, 553],
      "AcquisitionTime": ["154802.120000", "154803.610000", "154805.100000", "154806.590000", "154808.080000", "154809.570000", "154811.060000", "154812.550000", "154814.040000", "154815.530000", "154817.020000", "154818.510000", "154820.000000", "154821.490000", "154822.980000", "154824.470000", "154825.960000", "154827.450000", "154828.940000", "154830.430000", "154831.920000", "154833.410000", "154834.900000", "154836.390000", "154837.880000", "154839.370000", "154840.860000", "154842.350000", "154843.840000", "154845.330000", "154846.820000", "154848.310000", "154849.800000", "154851.290000", "154852.780000", "154854.270000", "154855.760000", "154857.250000", "154858.740000", "154900.230000", "154901.720000", "154903.210000", "154904.700000", "154906.190000", "154907.680000", "154909.170000", "154910.660000", "154912.150000", "154913.640000", "154915.130000", "154916.620000", "154918.110000", "154919.600000", "154921.090000", "154922.580000", "154924.070000", "154925.560000", "154927.050000", "154928.540000", "154930.030000", "154931.520000", "154933.010000", "154934.500000", "154935.990000", "154937.480000", "154938.970000", "154940.460000", "154941.950000", "154943.440000", "154944.930000", "154946.420000", "154947.910000", "154949.400000", "154950.890000", "154952.380000", "154953.870000", "154955.360000", "154956.850000", "154958.340000", "154959.830000", "155001.320000", "155002.810000", "155004.300000", "155005.790000", "155007.280000", "155008.770000", "155010.260000", "155011.750000", "155013.240000", "155014.730000", "155016.220000", "155017.710000", "155019.200000", "155020.690000", "155022.180000", "155023.670000", "155025.160000", "155026.650000", "155028.140000", "155029.630000", "155031.120000", "155032.610000", "155034.100000", "155035.590000", "155037.080000", "155038.570000", "155040.060000", "155041.550000", "155043.040000", "155044.530000", "155046.020000", "155047.510000", "155049.000000", "155050.490000", "155051.980000", "155053.470000", "155054.960000", "155056.450000", "155057.940000", "155059.430000", "155100.920000", "155102.410000", "155103.900000", "155105.390000", "155106.880000", "155108.370000", "155109.860000", "155111.350000", "155112.840000", "155114.330000", "155115.820000", "155117.310000", "155118.800000", "155120.290000", "155121.780000", "155123.270000", "155124.760000", "155126.250000", "155127.740000", "155129.230000", "155130.720000", "155132.210000", "155133.700000", "155135.190000", "155136.680000", "155138.170000", "155139.660000", "155141.150000", "155142.640000", "155144.130000", "155145.620000", "155147.110000", "155148.600000", "155150.090000", "155151.580000", "155153.070000", "155154.560000", "155156.050000", "155157.540000", "155159.030000", "155200.520000", "155202.010000", "155203.500000", "155204.990000", "155206.480000", "155207.970000", "155209.460000", "155210.950000", "155212.440000", "155213.930000", "155215.420000", "155216.910000", "155218.400000", "155219.890000", "155221.380000", "155222.870000", "155224.360000", "155225.850000", "155227.340000", "155228.830000", "155230.320000", "155231.810000", "155233.300000", "155234.790000", "155236.280000", "155237.770000", "155239.260000", "155240.750000", "155242.240000", "155243.730000", "155245.220000", "155246.710000", "155248.200000", "155249.690000", "155251.180000", "155252.670000", "155254.160000", "155255.650000", "155257.140000", "155258.630000", "155300.120000", "155301.610000", "155303.100000", "155304.590000", "155306.080000", "155307.570000", "155309.060000", "155310.550000", "155312.040000", "155313.530000", "155315.020000", "155316.510000", "155318.000000", "155319.490000", "155320.980000", "155322.470000", "155323.960000", "155325.450000", "155326.940000", "155328.430000", "155329.920000", "155331.410000", "155332.900000", "155334.390000", "155335.880000", "155337.370000", "155338.860000", "155340.350000", "155341.840000", "155343.330000", "155344.820000", "155346.310000", "155347.800000", "155349.290000", "155350.780000", "155352.270000", "155353.760000", "155355.250000", "155356.740000", "155358.230000", "155359.720000", "155401.210000", "155402.700000", "155404.190000", "155405.680000", "155407.170000", "155408.660000", "155410.150000", "155411.640000", "155413.130000", "155414.620000", "155416.110000", "155417.600000", "155419.090000", "155420.580000", "155422.070000", "155423.560000", "155425.050000", "155426.540000", "155428.030000", "155429.520000", "155431.010000", "155432.500000", "155433.990000", "155435.480000", "155436.970000", "155438.460000", "155439.950000", "155441.440000", "155442.930000", "155444.420000", "155445.910000", "155447.400000", "155448.890000", "155450.380000", "155451.870000", "155453.360000", "155454.850000", "155456.340000", "155457.830000", "155459.320000", "155500.810000", "155502.300000", "155503.790000", "155505.280000", "155506.770000", "155508.260000", "155509.750000", "155511.240000", "155512.730000", "155514.220000", "155515.710000", "155517.200000", "155518.690000", "155520.180000", "155521.670000", "155523.160000", "155524.650000", "155526.140000", "155527.630000", "155529.120000", "155530.610000", "155532.100000", "155533.590000", "155535.080000", "155536.570000", "155538.060000", "155539.550000", "155541.040000", "155542.530000", "155544.020000", "155545.510000", "155547.000000", "155548.490000", "155549.980000", "155551.470000", "155552.960000", "155554.450000", "155555.940000", "155557.430000", "155558.920000", "155600.410000", "155601.900000", "155603.390000", "155604.880000", "155606.370000", "155607.860000", "155609.350000", "155610.840000", "155612.330000", "155613.820000", "155615.310000", "155616.800000", "155618.290000", "155619.780000", "155621.270000", "155622.760000", "155624.250000", "155625.740000", "155627.230000", "155628.720000", "155630.210000", "155631.700000", "155633.190000", "155634.680000", "155636.170000", "155637.660000", "155639.150000", "155640.640000", "155642.130000", "155643.620000", "155645.110000", "155646.600000", "155648.090000", "155649.580000", "155651.070000", "155652.560000", "155654.050000", "155655.540000", "155657.030000", "155658.520000", "155700.010000", "155701.500000", "155702.990000", "155704.480000", "155705.970000", "155707.460000", "155708.950000", "155710.440000", "155711.930000", "155713.420000", "155714.910000", "155716.400000", "155717.890000", "155719.380000", "155720.870000", "155722.360000", "155723.850000", "155725.340000", "155726.830000", "155728.320000", "155729.810000", "155731.300000", "155732.790000", "155734.280000", "155735.770000", "155737.260000", "155738.750000", "155740.240000", "155741.730000", "155743.220000", "155744.710000", "155746.200000", "155747.690000", "155749.180000", "155750.670000", "155752.160000", "155753.650000", "155755.140000", "155756.630000", "155758.120000", "155759.610000", "155801.100000", "155802.590000", "155804.080000", "155805.570000", "155807.060000", "155808.550000", "155810.040000", "155811.530000", "155813.020000", "155814.510000", "155816.000000", "155817.490000", "155818.980000", "155820.470000", "155821.960000", "155823.450000", "155824.940000", "155826.430000", "155827.920000", "155829.410000", "155830.900000", "155832.390000", "155833.880000", "155835.370000", "155836.860000", "155838.350000", "155839.840000", "155841.330000", "155842.820000", "155844.310000", "155845.800000", "155847.290000", "155848.780000", "155850.270000", "155851.760000", "155853.250000", "155854.740000", "155856.230000", "155857.720000", "155859.210000", "155900.700000", "155902.190000", "155903.680000", "155905.170000", "155906.660000", "155908.150000", "155909.640000", "155911.130000", "155912.620000", "155914.110000", "155915.600000", "155917.090000", "155918.580000", "155920.070000", "155921.560000", "155923.050000", "155924.540000", "155926.030000", "155927.520000", "155929.010000", "155930.500000", "155931.990000", "155933.480000", "155934.970000", "155936.460000", "155937.950000", "155939.440000", "155940.930000", "155942.420000", "155943.910000", "155945.400000", "155946.890000", "155948.380000", "155949.870000", "155951.360000", "155952.850000", "155954.340000", "155955.830000", "155957.320000", "155958.810000", "160000.300000", "160001.790000", "160003.280000", "160004.770000", "160006.260000", "160007.750000", "160009.240000", "160010.730000", "160012.220000", "160013.710000", "160015.200000", "160016.690000", "160018.180000", "160019.670000", "160021.160000", "160022.650000", "160024.140000", "160025.630000", "160027.120000", "160028.610000", "160030.100000", "160031.590000", "160033.080000", "160034.570000", "160036.060000", "160037.550000", "160039.040000", "160040.530000", "160042.020000", "160043.510000", "160045.000000", "160046.490000", "160047.980000", "160049.470000", "160050.960000", "160052.450000", "160053.940000", "160055.430000", "160056.920000", "160058.410000", "160059.900000", "160101.390000", "160102.880000", "160104.370000", "160105.860000", "160107.350000", "160108.840000", "160110.330000", "160111.820000", "160113.310000", "160114.800000", "160116.290000", "160117.780000", "160119.270000", "160120.760000", "160122.250000", "160123.740000", "160125.230000", "160126.720000", "160128.210000", "160129.700000", "160131.190000", "160132.680000", "160134.170000", "160135.660000", "160137.150000", "160138.640000", "160140.130000", "160141.620000", "160143.110000", "160144.600000"],
      "ContentTime": ["154931.213000", "154931.216000", "154931.226000", "154931.228000", "154931.231000", "154931.234000", "154931.237000", "154931.239000", "154931.242000", "154931.245000", "154931.248000", "154931.251000", "154931.254000", "154931.256000", "154931.259000", "154931.262000", "154931.265000", "154931.268000", "154931.270000", "154931.273000", "154931.276000", "154931.279000", "154931.281000", "154931.284000", "154931.287000", "154931.290000", "154931.293000", "154931.295000", "154931.298000", "154931.301000", "154931.304000", "154931.307000", "154931.309000", "154931.312000", "154931.315000", "154931.318000", "154951.179000", "154951.182000", "154951.185000", "154951.187000", "154951.190000", "154951.193000", "154951.196000", "154951.199000", "154951.201000", "154951.204000", "154951.207000", "154951.210000", "154951.215000", "154951.218000", "154951.221000", "154951.224000", "154951.227000", "154951.229000", "154951.232000", "154951.235000", "154951.238000", "155011.179000", "155011.182000", "155011.185000", "155011.187000", "155011.190000", "155011.193000", "155011.196000", "155011.199000", "155011.201000", "155011.204000", "155011.207000", "155011.210000", "155011.213000", "155011.215000", "155011.218000", "155011.221000", "155011.224000", "155011.226000", "155011.229000", "155011.232000", "155031.178000", "155031.181000", "155031.184000", "155031.187000", "155031.189000", "155031.192000", "155031.195000", "155031.198000", "155031.201000", "155031.204000", "155031.207000", "155031.210000", "155031.212000", "155031.215000", "155031.218000", "155031.221000", "155031.224000", "155031.226000", "155031.229000", "155031.232000", "155111.179000", "155111.182000", "155111.185000", "155111.188000", "155111.191000", "155111.193000", "155111.196000", "155111.199000", "155111.202000", "155111.222000", "155111.225000", "155111.228000", "155111.231000", "155111.234000", "155111.236000", "155111.239000", "155111.242000", "155111.245000", "155111.247000", "155111.250000", "155111.253000", "155111.256000", "155111.259000", "155111.261000", "155111.264000", "155111.267000", "155111.270000", "155111.273000", "155111.275000", "155151.179000", "155151.182000", "155151.185000", "155151.187000", "155151.190000", "155151.193000", "155151.196000", "155151.199000", "155151.202000", "155151.205000", "155151.207000", "155151.210000", "155151.213000", "155151.216000", "155151.218000", "155151.222000", "155151.225000", "155151.227000", "155151.230000", "155151.233000", "155151.236000", "155151.239000", "155151.242000", "155151.245000", "155151.248000", "155151.250000", "155151.253000", "155231.179000", "155231.182000", "155231.185000", "155231.187000", "155231.190000", "155231.193000", "155231.196000", "155231.199000", "155231.202000", "155231.204000", "155231.207000", "155231.210000", "155231.213000", "155231.216000", "155231.218000", "155231.221000", "155231.224000", "155231.227000", "155231.229000", "155231.232000", "155231.235000", "155231.238000", "155231.241000", "155231.244000", "155231.247000", "155231.250000", "155231.252000", "155311.179000", "155311.182000", "155311.185000", "155311.187000", "155311.190000", "155311.193000", "155311.196000", "155311.199000", "155311.201000", "155311.204000", "155311.207000", "155311.210000", "155311.213000", "155311.216000", "155311.218000", "155311.221000", "155311.224000", "155311.227000", "155311.230000", "155311.232000", "155311.235000", "155311.238000", "155311.241000", "155311.244000", "155311.246000", "155311.249000", "155311.252000", "155351.179000", "155351.182000", "155351.185000", "155351.188000", "155351.191000", "155351.193000", "155351.196000", "155351.199000", "155351.202000", "155351.205000", "155351.207000", "155351.210000", "155351.214000", "155351.217000", "155351.219000", "155351.222000", "155351.225000", "155351.228000", "155351.231000", "155351.233000", "155351.236000", "155351.239000", "155351.242000", "155351.245000", "155351.247000", "155351.250000", "155351.253000", "155431.179000", "155431.182000", "155431.185000", "155431.187000", "155431.190000", "155431.193000", "155431.196000", "155431.199000", "155431.202000", "155431.204000", "155431.207000", "155431.210000", "155431.213000", "155431.216000", "155431.219000", "155431.223000", "155431.225000", "155431.228000", "155431.231000", "155431.234000", "155431.237000", "155431.240000", "155431.243000", "155431.245000", "155431.248000", "155431.251000", "155511.178000", "155511.181000", "155511.184000", "155511.187000", "155511.189000", "155511.192000", "155511.195000", "155511.198000", "155511.201000", "155511.204000", "155511.206000", "155511.209000", "155511.212000", "155511.215000", "155511.217000", "155511.220000", "155511.223000", "155511.226000", "155511.229000", "155511.231000", "155511.234000", "155511.237000", "155511.240000", "155511.243000", "155511.246000", "155511.248000", "155511.251000", "155551.179000", "155551.182000", "155551.185000", "155551.188000", "155551.191000", "155551.193000", "155551.196000", "155551.215000", "155551.218000", "155551.221000", "155551.223000", "155551.226000", "155551.229000", "155551.232000", "155551.235000", "155551.237000", "155551.240000", "155551.243000", "155551.246000", "155551.249000", "155551.251000", "155551.254000", "155551.257000", "155551.260000", "155551.263000", "155551.266000", "155551.268000", "155631.179000", "155631.182000", "155631.185000", "155631.188000", "155631.190000", "155631.193000", "155631.196000", "155631.199000", "155631.202000", "155631.204000", "155631.207000", "155631.210000", "155631.213000", "155631.216000", "155631.218000", "155631.221000", "155631.224000", "155631.227000", "155631.230000", "155631.232000", "155631.235000", "155631.238000", "155631.241000", "155631.244000", "155631.246000", "155631.249000", "155631.252000", "155711.179000", "155711.182000", "155711.185000", "155711.188000", "155711.190000", "155711.193000", "155711.196000", "155711.199000", "155711.202000", "155711.204000", "155711.207000", "155711.210000", "155711.213000", "155711.216000", "155711.219000", "155711.221000", "155711.224000", "155711.227000", "155711.230000", "155711.233000", "155711.236000", "155711.239000", "155711.241000", "155711.244000", "155711.247000", "155711.250000", "155711.253000", "155751.179000", "155751.182000", "155751.185000", "155751.188000", "155751.190000", "155751.193000", "155751.196000", "155751.199000", "155751.202000", "155751.205000", "155751.208000", "155751.210000", "155751.213000", "155751.216000", "155751.219000", "155751.221000", "155751.224000", "155751.227000", "155751.230000", "155751.233000", "155751.236000", "155751.238000", "155751.241000", "155751.244000", "155751.247000", "155751.250000", "155751.252000", "155831.179000", "155831.182000", "155831.185000", "155831.188000", "155831.190000", "155831.193000", "155831.196000", "155831.199000", "155831.202000", "155831.204000", "155831.207000", "155831.210000", "155831.213000", "155831.216000", "155831.218000", "155831.221000", "155831.224000", "155831.227000", "155831.230000", "155831.233000", "155831.235000", "155831.238000", "155831.241000", "155831.244000", "155831.247000", "155831.250000", "155831.252000", "155911.179000", "155911.182000", "155911.185000", "155911.188000", "155911.190000", "155911.193000", "155911.196000", "155911.200000", "155911.204000", "155911.206000", "155911.209000", "155911.212000", "155911.215000", "155911.218000", "155911.220000", "155911.223000", "155911.226000", "155911.229000", "155911.232000", "155911.234000", "155911.237000", "155911.240000", "155911.243000", "155911.246000", "155911.248000", "155911.251000", "155951.178000", "155951.181000", "155951.184000", "155951.187000", "155951.189000", "155951.192000", "155951.195000", "155951.198000", "155951.201000", "155951.203000", "155951.206000", "155951.209000", "155951.212000", "155951.215000", "155951.218000", "155951.220000", "155951.223000", "155951.226000", "155951.229000", "155951.231000", "155951.234000", "155951.250000", "155951.253000", "155951.256000", "155951.258000", "155951.261000", "155951.264000", "160031.179000", "160031.182000", "160031.185000", "160031.188000", "160031.190000", "160031.193000", "160031.196000", "160031.199000", "160031.202000", "160031.205000", "160031.207000", "160031.210000", "160031.213000", "160031.216000", "160031.219000", "160031.221000", "160031.224000", "160031.227000", "160031.230000", "160031.233000", "160031.236000", "160031.239000", "160031.241000", "160031.244000", "160031.247000", "160031.250000", "160031.253000", "160111.179000", "160111.182000", "160111.185000", "160111.188000", "160111.190000", "160111.193000", "160111.196000", "160111.199000", "160111.202000", "160111.205000", "160111.207000", "160111.210000", "160111.213000", "160111.216000", "160111.218000", "160111.221000", "160111.224000", "160111.227000", "160111.230000", "160111.233000", "160111.235000", "160111.238000", "160111.241000", "160111.244000", "160111.247000", "160111.249000", "160111.252000", "160147.219000", "160147.222000", "160147.225000", "160147.228000", "160147.230000", "160147.233000", "160147.236000", "160147.239000", "160147.242000", "160147.245000", "160147.247000", "160147.250000", "160147.253000", "160147.256000", "160147.258000", "160147.261000", "160147.264000", "160147.267000", "160147.270000", "160147.272000", "160147.275000", "160147.278000", "160147.281000", "160147.284000"],
