{
  "AcquisitionMatrixPE": 104,
  "AcquisitionNumber": 1,
  "AcquisitionTime": "15:22:4.032500",
  "BandwidthPerPixelPhaseEncode": 17.17,
  "BaseResolution": 104,
  "BodyPartExamined": "BRAIN",
  "CoilString": "HC1-7;NC1_2",
  "ConsistencyInfo": "N4_VE11C_LATEST_20160120",
  "ConversionSoftware": "dcm2niix",
  "ConversionSoftwareVersion": "v1.0.20190902",
  "DerivedVendorReportedEchoSpacing": 0.000560011,
  "DeviceSerialNumber": "167006",
  "DwellTime": 2.1e-06,
  "EchoTime": 0.037,
  "EchoTrainLength": 104,
  "EffectiveEchoSpacing": 0.000560011,
  "FlipAngle": 52,
  "ImageComments": "Unaliased_MB4_PE3_LB",
  "ImageOrientationPatientDICOM": [0.999669, -0.0255549, 0.00282208, 0.0247805, 0.928445, -0.370642],
  "ImageType": [
    "ORIGINAL",
    "PRIMARY",
    "M",
    "MB",
    "ND",
    "MOSAIC"
],
  "ImagingFrequency": 123.259,
  "InPlanePhaseEncodingDirectionDICOM": "COL",
  "InstitutionAddress": "Chemin_Queen-Mary_4565_Montreal_District_CA_H3W_1W5",
  "InstitutionName": "IUGM",
  "InstitutionalDepartmentName": "Department",
  "MRAcquisitionType": "2D",
  "MagneticFieldStrength": 3,
  "Manufacturer": "Siemens",
  "ManufacturersModelName": "Prisma_fit",
  "Modality": "MR",
  "MultibandAccelerationFactor": 4,
  "PartialFourier": 1,
  "PatientPosition": "HFS",
  "PercentPhaseFOV": 100,
  "PhaseEncodingDirection": "j",
  "PhaseEncodingSteps": 104,
  "PhaseResolution": 1,
  "PixelBandwidth": 2290,
  "ProcedureStepDescription": "games_shinobi",
  "ProtocolName": "func_task-shinobi_run-1",
  "PulseSequenceDetails": "%CustomerSeq%_cmrr_mbep2d_bold",
  "ReceiveCoilActiveElements": "HC1-7;NC1,2",
  "ReceiveCoilName": "HeadNeck_64",
  "ReconMatrixPE": 104,
  "RepetitionTime": 1.49,
  "SAR": 0.0303155,
  "ScanOptions": "FS",
  "ScanningSequence": "EP",
  "SequenceName": "epfid2d1_104",
  "SequenceVariant": "SK_SS",
  "SeriesDescription": "func_task-shinobi_run-1",
  "SeriesNumber": 11,
  "ShimSetting": [639, -7260, -8838, 573, 32, -244, -112, -13],
  "SliceThickness": 2,
  "SliceTiming": [0, 0.785, 0.0975, 0.8825, 0.195, 0.98, 0.295, 1.0775, 0.3925, 1.175, 0.49, 1.275, 0.5875, 1.3725, 0.685, 0, 0.785, 0.0975, 0.8825, 0.195, 0.98, 0.295, 1.0775, 0.3925, 1.175, 0.49, 1.275, 0.5875, 1.3725, 0.685, 0, 0.785, 0.0975, 0.8825, 0.195, 0.98, 0.295, 1.0775, 0.3925, 1.175, 0.49, 1.275, 0.5875, 1.3725, 0.685, 0, 0.785, 0.0975, 0.8825, 0.195, 0.98, 0.295, 1.0775, 0.3925, 1.175, 0.49, 1.275, 0.5875, 1.3725, 0.685],
  "SoftwareVersions": "syngo_MR_E11",
  "SpacingBetweenSlices": 2,
  "StationName": "MRC35049",
  "TaskName": "shinobi",
  "TotalReadoutTime": 0.0576811,
  "TxRefAmp": 218.826,
  "WipMemBlock": "aa676e8d-6fe6-4a84-9e18-b643cd54ef5d||Sequence: R016 ve11c/master r/e634e98; Dec 19 2017 11:00:25 by eja",
  "dcmmeta_affine": [
    [-1.9993388652801514, 0.04956107959151268, -0.01370316557586193, 103.61131286621094],
    [0.05110989138484001, 1.8568906784057617, -0.741178035736084, -64.81316375732422],
    [0.005644151009619236, 0.7412831783294678, 1.8575433492660522, -69.9322738647461],
    [0.0, 0.0, 0.0, 1.0]
],
  "dcmmeta_reorient_transform": [
    [0.0, -1.0, 0.0, 103.0],
    [1.0, 0.0, 0.0, 0.0],
    [0.0, 0.0, 1.0, 0.0],
    [0.0, 0.0, 0.0, 1.0]
],
  "dcmmeta_shape": [104, 104, 60, 419],
  "dcmmeta_slice_dim": 2,
  "dcmmeta_version": 0.6,
  "global": {
    "const": {
      "AcquisitionMatrix": [104, 0, 0, 104],
      "AngioFlag": "N",
      "BitsAllocated": 16,
      "BitsStored": 16,
      "BodyPartExamined": "BRAIN",
      "Columns": 832,
      "EchoNumbers": 1,
      "EchoTime": 37.0,
      "EchoTrainLength": 104,
      "FlipAngle": 52.0,
      "HighBit": 15,
      "ImageOrientationPatient": [0.99966943570211, -0.0255549449761, 0.00282207552988, 0.02478053944982, 0.92844532908456, -0.3706416001553],
      "ImagePositionPatient": [-854.51568698365, -783.75077430971, 274.19251051919],
      "ImageType": [
        "ORIGINAL",
        "PRIMARY",
        "M",
        "MB",
        "ND",
        "MOSAIC"
],
      "ImagedNucleus": "1H",
      "ImagingFrequency": 123.258969,
      "InPlanePhaseEncodingDirection": "COL",
      "MRAcquisitionType": "2D",
      "MagneticFieldStrength": 3.0,
      "Manufacturer": "SIEMENS",
      "ManufacturerModelName": "Prisma_fit",
      "Modality": "MR",
      "NumberOfAverages": 1.0,
      "NumberOfPhaseEncodingSteps": 104,
      "PercentPhaseFieldOfView": 100.0,
      "PercentSampling": 100.0,
      "PerformedProcedureStepStartTime": "150011.423000",
      "PhotometricInterpretation": "MONOCHROME2",
      "PixelBandwidth": 2290.0,
      "PixelRepresentation": 0,
      "PixelSpacing": [2.0, 2.0],
      "ProtocolName": "func_task-shinobi_run-1",
      "RepetitionTime": 1490.0,
      "Rows": 832,
      "SAR": 0.03031545251838,
      "SamplesPerPixel": 1,
      "ScanOptions": "FS",
      "ScanningSequence": "EP",
      "SequenceName": "epfid2d1_104",
      "SequenceVariant": [
        "SK",
        "SS"
],
      "SeriesDescription": "func_task-shinobi_run-1",
      "SeriesNumber": 11,
      "SeriesTime": "152318.106000",
      "SliceLocation": -41.641970395032,
      "SliceThickness": 2.0,
      "SmallestImagePixelValue": 0,
      "SoftwareVersions": "syngo MR E11",
      "SpacingBetweenSlices": 2.0000000221059,
      "SpecificCharacterSet": "ISO_IR 100",
      "StudyID": "1",
      "StudyTime": "150011.363000",
      "TransmitCoilName": "Body",
      "VariableFlipAngleFlag": "N",
      "WindowCenterWidthExplanation": "Algo1",
      "dBdt": 0.0},
    "slices": {}
  },
  "time": {
    "samples": {
      "AcquisitionNumber": [1, 2, 3, 4, 5, 6, 7, 8, 9, 10, 11, 12, 13, 14, 15, 16, 17, 18, 19, 20, 21, 22, 23, 24, 25, 26, 27, 28, 29, 30, 31, 32, 33, 34, 35, 36, 37, 38, 39, 40, 41, 42, 43, 44, 45, 46, 47, 48, 49, 50, 51, 52, 53, 54, 55, 56, 57, 58, 59, 60, 61, 62, 63, 64, 65, 66, 67, 68, 69, 70, 71, 72, 73, 74, 75, 76, 77, 78, 79, 80, 81, 82, 83, 84, 85, 86, 87, 88, 89, 90, 91, 92, 93, 94, 95, 96, 97, 98, 99, 100, 101, 102, 103, 104, 105, 106, 107, 108, 109, 110, 111, 112, 113, 114, 115, 116, 117, 118, 119, 120, 121, 122, 123, 124, 125, 126, 127, 128, 129, 130, 131, 132, 133, 134, 135, 136, 137, 138, 139, 140, 141, 142, 143, 144, 145, 146, 147, 148, 149, 150, 151, 152, 153, 154, 155, 156, 157, 158, 159, 160, 161, 162, 163, 164, 165, 166, 167, 168, 169, 170, 171, 172, 173, 174, 175, 176, 177, 178, 179, 180, 181, 182, 183, 184, 185, 186, 187, 188, 189, 190, 191, 192, 193, 194, 195, 196, 197, 198, 199, 200, 201, 202, 203, 204, 205, 206, 207, 208, 209, 210, 211, 212, 213, 214, 215, 216, 217, 218, 219, 220, 221, 222, 223, 224, 225, 226, 227, 228, 229, 230, 231, 232, 233, 234, 235, 236, 237, 238, 239, 240, 241, 242, 243, 244, 245, 246, 247, 248, 249, 250, 251, 252, 253, 254, 255, 256, 257, 258, 259, 260, 261, 262, 263, 264, 265, 266, 267, 268, 269, 270, 271, 272, 273, 274, 275, 276, 277, 278, 279, 280, 281, 282, 283, 284, 285, 286, 287, 288, 289, 290, 291, 292, 293, 294, 295, 296, 297, 298, 299, 300, 301, 302, 303, 304, 305, 306, 307, 308, 309, 310, 311, 312, 313, 314, 315, 316, 317, 318, 319, 320, 321, 322, 323, 324, 325, 326, 327, 328, 329, 330, 331, 332, 333, 334, 335, 336, 337, 338, 339, 340, 341, 342, 343, 344, 345, 346, 347, 348, 349, 350, 351, 352, 353, 354, 355, 356, 357, 358, 359, 360, 361, 362, 363, 364, 365, 366, 367, 368, 369, 370, 371, 372, 373, 374, 375, 376, 377, 378, 379, 380, 381, 382, 383, 384, 385, 386, 387, 388, 389, 390, 391, 392, 393, 394, 395, 396, 397, 398, 399, 400, 401, 402, 403, 404, 405, 406, 407, 408, 409, 410, 411, 412, 413, 414, 415, 416, 417, 418, 419],
      "AcquisitionTime": ["152204.032500", "152205.522500", "152207.012500", "152208.502500", "152209.992500", "152211.482500", "152212.972500", "152214.462500", "152215.952500", "152217.442500", "152218.932500", "152220.422500", "152221.912500", "152223.402500", "152224.892500", "152226.382500", "152227.872500", "152229.362500", "152230.852500", "152232.342500", "152233.832500", "152235.322500", "152236.812500", "152238.302500", "152239.792500", "152241.282500", "152242.772500", "152244.262500", "152245.752500", "152247.242500", "152248.732500", "152250.222500", "152251.712500", "152253.202500", "152254.692500", "152256.182500", "152257.672500", "152259.162500", "152300.652500", "152302.142500", "152303.632500", "152305.122500", "152306.612500", "152308.102500", "152309.592500", "152311.082500", "152312.572500", "152314.062500", "152315.552500", "152317.042500", "152318.532500", "152320.022500", "152321.512500", "152323.002500", "152324.492500", "152325.982500", "152327.472500", "152328.962500", "152330.452500", "152331.942500", "152333.432500", "152334.922500", "152336.412500", "152337.902500", "152339.392500", "152340.882500", "152342.372500", "152343.862500", "152345.352500", "152346.842500", "152348.332500", "152349.822500", "152351.312500", "152352.802500", "152354.292500", "152355.782500", "152357.272500", "152358.762500", "152400.252500", "152401.742500", "152403.232500", "152404.722500", "152406.212500", "152407.702500", "152409.192500", "152410.682500", "152412.172500", "152413.662500", "152415.152500", "152416.642500", "152418.132500", "152419.622500", "152421.112500", "152422.602500", "152424.092500", "152425.582500", "152427.072500", "152428.562500", "152430.052500", "152431.542500", "152433.032500", "152434.522500", "152436.012500", "152437.502500", "152438.992500", "152440.482500", "152441.972500", "152443.462500", "152444.952500", "152446.442500", "152447.932500", "152449.422500", "152450.912500", "152452.402500", "152453.892500", "152455.382500", "152456.872500", "152458.362500", "152459.852500", "152501.342500", "152502.832500", "152504.322500", "152505.812500", "152507.302500", "152508.792500", "152510.282500", "152511.772500", "152513.262500", "152514.752500", "152516.242500", "152517.732500", "152519.222500", "152520.712500", "152522.202500", "152523.692500", "152525.182500", "152526.672500", "152528.162500", "152529.652500", "152531.142500", "152532.632500", "152534.122500", "152535.612500", "152537.102500", "152538.592500", "152540.082500", "152541.572500", "152543.062500", "152544.552500", "152546.042500", "152547.532500", "152549.022500", "152550.512500", "152552.002500", "152553.492500", "152554.982500", "152556.472500", "152557.962500", "152559.452500", "152600.942500", "152602.432500", "152603.922500", "152605.412500", "152606.902500", "152608.392500", "152609.882500", "152611.372500", "152612.862500", "152614.352500", "152615.842500", "152617.332500", "152618.822500", "152620.312500", "152621.802500", "152623.292500", "152624.782500", "152626.272500", "152627.762500", "152629.252500", "152630.742500", "152632.232500", "152633.722500", "152635.212500", "152636.702500", "152638.192500", "152639.682500", "152641.172500", "152642.662500", "152644.152500", "152645.642500", "152647.132500", "152648.622500", "152650.112500", "152651.602500", "152653.092500", "152654.582500", "152656.072500", "152657.562500", "152659.052500", "152700.542500", "152702.032500", "152703.522500", "152705.012500", "152706.502500", "152707.992500", "152709.482500", "152710.972500", "152712.462500", "152713.952500", "152715.442500", "152716.932500", "152718.422500", "152719.912500", "152721.402500", "152722.892500", "152724.382500", "152725.872500", "152727.362500", "152728.852500", "152730.342500", "152731.832500", "152733.322500", "152734.812500", "152736.302500", "152737.792500", "152739.282500", "152740.772500", "152742.262500", "152743.752500", "152745.242500", "152746.732500", "152748.222500", "152749.712500", "152751.202500", "152752.692500", "152754.182500", "152755.672500", "152757.162500", "152758.652500", "152800.142500", "152801.632500", "152803.122500", "152804.612500", "152806.102500", "152807.592500", "152809.082500", "152810.572500", "152812.062500", "152813.552500", "152815.042500", "152816.532500", "152818.022500", "152819.512500", "152821.002500", "152822.492500", "152823.982500", "152825.472500", "152826.962500", "152828.452500", "152829.942500", "152831.432500", "152832.922500", "152834.412500", "152835.902500", "152837.392500", "152838.882500", "152840.372500", "152841.862500", "152843.352500", "152844.842500", "152846.332500", "152847.822500", "152849.312500", "152850.802500", "152852.292500", "152853.782500", "152855.272500", "152856.762500", "152858.252500", "152859.742500", "152901.232500", "152902.722500", "152904.212500", "152905.702500", "152907.192500", "152908.682500", "152910.172500", "152911.662500", "152913.152500", "152914.642500", "152916.132500", "152917.622500", "152919.112500", "152920.602500", "152922.092500", "152923.582500", "152925.072500", "152926.562500", "152928.052500", "152929.542500", "152931.032500", "152932.522500", "152934.012500", "152935.502500", "152936.992500", "152938.482500", "152939.972500", "152941.462500", "152942.952500", "152944.442500", "152945.932500", "152947.422500", "152948.912500", "152950.402500", "152951.892500", "152953.382500", "152954.872500", "152956.362500", "152957.852500", "152959.342500", "153000.832500", "153002.322500", "153003.812500", "153005.302500", "153006.792500", "153008.282500", "153009.772500", "153011.262500", "153012.752500", "153014.242500", "153015.732500", "153017.222500", "153018.712500", "153020.202500", "153021.692500", "153023.182500", "153024.672500", "153026.162500", "153027.652500", "153029.142500", "153030.632500", "153032.122500", "153033.612500", "153035.102500", "153036.592500", "153038.082500", "153039.572500", "153041.062500", "153042.552500", "153044.042500", "153045.532500", "153047.022500", "153048.512500", "153050.002500", "153051.492500", "153052.982500", "153054.472500", "153055.962500", "153057.452500", "153058.942500", "153100.432500", "153101.922500", "153103.412500", "153104.902500", "153106.392500", "153107.882500", "153109.372500", "153110.862500", "153112.352500", "153113.842500", "153115.332500", "153116.822500", "153118.312500", "153119.802500", "153121.292500", "153122.782500", "153124.272500", "153125.762500", "153127.252500", "153128.742500", "153130.232500", "153131.722500", "153133.212500", "153134.702500", "153136.192500", "153137.682500", "153139.172500", "153140.662500", "153142.152500", "153143.642500", "153145.132500", "153146.622500", "153148.112500", "153149.602500", "153151.092500", "153152.582500", "153154.072500", "153155.562500", "153157.052500", "153158.542500", "153200.032500", "153201.522500", "153203.012500", "153204.502500", "153205.992500", "153207.482500", "153208.972500", "153210.462500", "153211.952500", "153213.442500", "153214.932500", "153216.422500", "153217.912500", "153219.402500", "153220.892500", "153222.382500", "153223.872500", "153225.362500", "153226.852500"],
      "ContentTime": ["152318.109000", "152318.112000", "152318.115000", "152318.117000", "152318.120000", "152318.140000", "152318.143000", "152318.146000", "152318.149000", "152318.152000", "152318.154000", "152318.172000", "152318.175000", "152318.177000", "152318.180000", "152318.183000", "152318.186000", "152318.189000", "152318.191000", "152318.194000", "152318.197000", "152338.077000", "152338.080000", "152338.083000", "152338.086000", "152338.088000", "152338.091000", "152338.094000", "152338.097000", "152338.099000", "152338.102000", "152338.105000", "152338.108000", "152338.111000", "152338.114000", "152338.116000", "152338.126000", "152338.129000", "152338.131000", "152338.134000", "152338.137000", "152358.077000", "152358.080000", "152358.093000", "152358.096000", "152358.098000", "152358.101000", "152358.104000", "152358.107000", "152358.110000", "152358.112000", "152358.115000", "152358.118000", "152358.121000", "152358.124000", "152358.128000", "152358.131000", "152358.134000", "152358.137000", "152358.140000", "152358.142000", "152418.077000", "152418.080000", "152418.083000", "152418.106000", "152418.109000", "152418.111000", "152418.114000", "152418.117000", "152418.120000", "152418.123000", "152418.125000", "152418.128000", "152418.131000", "152418.134000", "152418.137000", "152418.140000", "152418.143000", "152418.146000", "152418.148000", "152418.151000", "152438.078000", "152438.081000", "152438.084000", "152438.087000", "152438.089000", "152438.092000", "152438.095000", "152438.098000", "152438.100000", "152438.103000", "152438.106000", "152438.109000", "152438.112000", "152438.115000", "152438.117000", "152438.120000", "152438.123000", "152438.126000", "152438.129000", "152438.131000", "152438.134000", "152518.078000", "152518.081000", "152518.084000", "152518.087000", "152518.090000", "152518.092000", "152518.095000", "152518.098000", "152518.101000", "152518.103000", "152518.106000", "152518.109000", "152518.112000", "152518.115000", "152518.118000", "152518.120000", "152518.123000", "152518.126000", "152518.129000", "152518.132000", "152518.134000", "152518.137000", "152518.140000", "152518.148000", "152518.151000", "152518.154000", "152518.156000", "152558.077000", "152558.080000", "152558.083000", "152558.086000", "152558.088000", "152558.091000", "152558.094000", "152558.097000", "152558.100000", "152558.102000", "152558.105000", "152558.108000", "152558.111000", "152558.114000", "152558.117000", "152558.119000", "152558.122000", "152558.125000", "152558.128000", "152558.131000", "152558.134000", "152558.136000", "152558.139000", "152558.142000", "152558.145000", "152558.147000", "152558.150000", "152638.077000", "152638.080000", "152638.083000", "152638.086000", "152638.088000", "152638.091000", "152638.094000", "152638.097000", "152638.100000", "152638.102000", "152638.105000", "152638.108000", "152638.111000", "152638.114000", "152638.117000", "152638.119000", "152638.122000", "152638.125000", "152638.128000", "152638.131000", "152638.133000", "152638.136000", "152638.139000", "152638.142000", "152638.145000", "152638.147000", "152638.150000", "152718.078000", "152718.081000", "152718.084000", "152718.087000", "152718.089000", "152718.092000", "152718.095000", "152718.098000", "152718.101000", "152718.103000", "152718.106000", "152718.109000", "152718.112000", "152718.115000", "152718.118000", "152718.120000", "152718.123000", "152718.126000", "152718.129000", "152718.132000", "152718.135000", "152718.137000", "152718.140000", "152718.143000", "152718.146000", "152718.149000", "152718.152000", "152758.078000", "152758.081000", "152758.084000", "152758.087000", "152758.089000", "152758.092000", "152758.095000", "152758.098000", "152758.101000", "152758.103000", "152758.106000", "152758.109000", "152758.112000", "152758.115000", "152758.117000", "152758.120000", "152758.123000", "152758.126000", "152758.129000", "152758.131000", "152758.134000", "152758.137000", "152758.140000", "152758.143000", "152758.145000", "152758.148000", "152758.151000", "152838.077000", "152838.080000", "152838.083000", "152838.086000", "152838.088000", "152838.091000", "152838.094000", "152838.097000", "152838.100000", "152838.102000", "152838.105000", "152838.108000", "152838.111000", "152838.114000", "152838.116000", "152838.119000", "152838.122000", "152838.125000", "152838.128000", "152838.131000", "152838.133000", "152838.136000", "152838.139000", "152838.153000", "152838.156000", "152838.159000", "152838.162000", "152918.078000", "152918.081000", "152918.084000", "152918.087000", "152918.089000", "152918.092000", "152918.095000", "152918.098000", "152918.101000", "152918.104000", "152918.106000", "152918.109000", "152918.112000", "152918.115000", "152918.118000", "152918.121000", "152918.123000", "152918.126000", "152918.130000", "152918.133000", "152918.135000", "152918.138000", "152918.141000", "152918.144000", "152918.147000", "152918.150000", "152958.078000", "152958.081000", "152958.084000", "152958.087000", "152958.089000", "152958.092000", "152958.095000", "152958.098000", "152958.101000", "152958.103000", "152958.106000", "152958.109000", "152958.112000", "152958.115000", "152958.117000", "152958.120000", "152958.123000", "152958.126000", "152958.129000", "152958.131000", "152958.134000", "152958.137000", "152958.140000", "152958.143000", "152958.145000", "152958.148000", "152958.151000", "153018.078000", "153018.081000", "153018.084000", "153018.087000", "153018.089000", "153018.092000", "153018.095000", "153018.098000", "153018.101000", "153018.104000", "153018.106000", "153018.109000", "153018.112000", "153018.115000", "153058.077000", "153058.080000", "153058.083000", "153058.086000", "153058.089000", "153058.093000", "153058.096000", "153058.099000", "153058.101000", "153058.104000", "153058.107000", "153058.110000", "153058.113000", "153058.116000", "153058.119000", "153058.121000", "153058.124000", "153058.127000", "153058.130000", "153058.133000", "153058.136000", "153058.138000", "153058.141000", "153058.144000", "153058.147000", "153058.150000", "153138.078000", "153138.081000", "153138.084000", "153138.087000", "153138.089000", "153138.092000", "153138.095000", "153138.098000", "153138.101000", "153138.104000", "153138.106000", "153138.109000", "153138.112000", "153138.115000", "153138.118000", "153138.120000", "153138.123000", "153138.126000", "153138.129000", "153138.132000", "153138.135000", "153138.137000", "153138.140000", "153138.143000", "153138.146000", "153138.149000", "153138.152000", "153218.078000", "153218.081000", "153218.084000", "153218.087000", "153218.089000", "153218.092000", "153218.095000", "153218.098000", "153218.101000", "153218.103000", "153218.106000", "153218.109000", "153218.112000", "153218.121000", "153218.124000", "153218.126000", "153218.129000", "153218.132000", "153218.135000", "153218.138000", "153218.141000", "153218.143000", "153218.146000", "153218.149000", "153218.152000", "153218.155000", "153218.157000", "153229.302000", "153229.305000", "153229.308000", "153229.311000", "153229.314000", "153229.317000", "153229.320000", "153229.323000"],
      "InstanceCreationTime": ["152318.109000", "152318.112000", "152318.115000", "152318.117000", "152318.120000", "152318.140000", "152318.143000", "152318.146000", "152318.149000", "152318.152000", "152318.154000", "152318.172000", "152318.175000", "152318.177000", "152318.180000", "152318.183000", "152318.186000", "152318.189000", "152318.191000", "152318.194000", "152318.197000", "152338.077000", "152338.080000", "152338.083000", "152338.086000", "152338.088000", "152338.091000", "152338.094000", "152338.097000", "152338.099000", "152338.102000", "152338.105000", "152338.108000", "152338.111000", "152338.114000", "152338.116000", "152338.126000", "152338.129000", "152338.131000", "152338.134000", "152338.137000", "152358.077000", "152358.080000", "152358.093000", "152358.096000", "152358.098000", "152358.101000", "152358.104000", "152358.107000", "152358.110000", "152358.112000", "152358.115000", "152358.118000", "152358.121000", "152358.124000", "152358.128000", "152358.131000", "152358.134000", "152358.137000", "152358.140000", "152358.142000", "152418.077000", "152418.080000", "152418.083000", "152418.106000", "152418.109000", "152418.111000", "152418.114000", "152418.117000", "152418.120000", "152418.123000", "152418.125000", "152418.128000", "152418.131000", "152418.134000", "152418.137000", "152418.140000", "152418.143000", "152418.146000", "152418.148000", "152418.151000", "152438.078000", "152438.081000", "152438.084000", "152438.087000", "152438.089000", "152438.092000", "152438.095000", "152438.098000", "152438.100000", "152438.103000", "152438.106000", "152438.109000", "152438.112000", "152438.115000", "152438.117000", "152438.120000", "152438.123000", "152438.126000", "152438.129000", "152438.131000", "152438.134000", "152518.078000", "152518.081000", "152518.084000", "152518.087000", "152518.090000", "152518.092000", "152518.095000", "152518.098000", "152518.101000", "152518.103000", "152518.106000", "152518.109000", "152518.112000", "152518.115000", "152518.118000", "152518.120000", "152518.123000", "152518.126000", "152518.129000", "152518.132000", "152518.134000", "152518.137000", "152518.140000", "152518.148000", "152518.151000", "152518.154000", "152518.156000", "152558.077000", "152558.080000", "152558.083000", "152558.086000", "152558.088000", "152558.091000", "152558.094000", "152558.097000", "152558.100000", "152558.102000", "152558.105000", "152558.108000", "152558.111000", "152558.114000", "152558.117000", "152558.119000", "152558.122000", "152558.125000", "152558.128000", "152558.131000", "152558.134000", "152558.136000", "152558.139000", "152558.142000", "152558.145000", "152558.147000", "152558.150000", "152638.077000", "152638.080000", "152638.083000", "152638.086000", "152638.088000", "152638.091000", "152638.094000", "152638.097000", "152638.100000", "152638.102000", "152638.105000", "152638.108000", "152638.111000", "152638.114000", "152638.117000", "152638.119000", "152638.122000", "152638.125000", "152638.128000", "152638.131000", "152638.133000", "152638.136000", "152638.139000", "152638.142000", "152638.145000", "152638.147000", "152638.150000", "152718.078000", "152718.081000", "152718.084000", "152718.087000", "152718.089000", "152718.092000", "152718.095000", "152718.098000", "152718.101000", "152718.103000", "152718.106000", "152718.109000", "152718.112000", "152718.115000", "152718.118000", "152718.120000", "152718.123000", "152718.126000", "152718.129000", "152718.132000", "152718.135000", "152718.137000", "152718.140000", "152718.143000", "152718.146000", "152718.149000", "152718.152000", "152758.078000", "152758.081000", "152758.084000", "152758.087000", "152758.089000", "152758.092000", "152758.095000", "152758.098000", "152758.101000", "152758.103000", "152758.106000", "152758.109000", "152758.112000", "152758.115000", "152758.117000", "152758.120000", "152758.123000", "152758.126000", "152758.129000", "152758.131000", "152758.134000", "152758.137000", "152758.140000", "152758.143000", "152758.145000", "152758.148000", "152758.151000", "152838.077000", "152838.080000", "152838.083000", "152838.086000", "152838.088000", "152838.091000", "152838.094000", "152838.097000", "152838.100000", "152838.102000", "152838.105000", "152838.108000", "152838.111000", "152838.114000", "152838.116000", "152838.119000", "152838.122000", "152838.125000", "152838.128000", "152838.131000", "152838.133000", "152838.136000", "152838.139000", "152838.153000", "152838.156000", "152838.159000", "152838.162000", "152918.078000", "152918.081000", "152918.084000", "152918.087000", "152918.089000", "152918.092000", "152918.095000", "152918.098000", "152918.101000", "152918.104000", "152918.106000", "152918.109000", "152918.112000", "152918.115000", "152918.118000", "152918.121000", "152918.123000", "152918.126000", "152918.130000", "152918.133000", "152918.135000", "152918.138000", "152918.141000", "152918.144000", "152918.147000", "152918.150000", "152958.078000", "152958.081000", "152958.084000", "152958.087000", "152958.089000", "152958.092000", "152958.095000", "152958.098000", "152958.101000", "152958.103000", "152958.106000", "152958.109000", "152958.112000", "152958.115000", "152958.117000", "152958.120000", "152958.123000", "152958.126000", "152958.129000", "152958.131000", "152958.134000", "152958.137000", "152958.140000", "152958.143000", "152958.145000", "152958.148000", "152958.151000", "153018.078000", "153018.081000", "153018.084000", "153018.087000", "153018.089000", "153018.092000", "153018.095000", "153018.098000", "153018.101000", "153018.104000", "153018.106000", "153018.109000", "153018.112000", "153018.115000", "153058.077000", "153058.080000", "153058.083000", "153058.086000", "153058.089000", "153058.093000", "153058.096000", "153058.099000", "153058.101000", "153058.104000", "153058.107000", "153058.110000", "153058.113000", "153058.116000", "153058.119000", "153058.121000", "153058.124000", "153058.127000", "153058.130000", "153058.133000", "153058.136000", "153058.138000", "153058.141000", "153058.144000", "153058.147000", "153058.150000", "153138.078000", "153138.081000", "153138.084000", "153138.087000", "153138.089000", "153138.092000", "153138.095000", "153138.098000", "153138.101000", "153138.104000", "153138.106000", "153138.109000", "153138.112000", "153138.115000", "153138.118000", "153138.120000", "153138.123000", "153138.126000", "153138.129000", "153138.132000", "153138.135000", "153138.137000", "153138.140000", "153138.143000", "153138.146000", "153138.149000", "153138.152000", "153218.078000", "153218.081000", "153218.084000", "153218.087000", "153218.089000", "153218.092000", "153218.095000", "153218.098000", "153218.101000", "153218.103000", "153218.106000", "153218.109000", "153218.112000", "153218.121000", "153218.124000", "153218.126000", "153218.129000", "153218.132000", "153218.135000", "153218.138000", "153218.141000", "153218.143000", "153218.146000", "153218.149000", "153218.152000", "153218.155000", "153218.157000", "153229.302000", "153229.305000", "153229.308000", "153229.311000", "153229.314000", "153229.317000", "153229.320000", "153229.323000"],
