{
  "AcquisitionMatrixPE": 104,
  "AcquisitionNumber": 1,
  "AcquisitionTime": "15:32:12.817500",
  "BandwidthPerPixelPhaseEncode": 17.17,
  "BaseResolution": 104,
  "BodyPartExamined": "BRAIN",
  "CoilString": "HC1-7;NC1_2",
  "ConsistencyInfo": "N4_VE11C_LATEST_20160120",
  "ConversionSoftware": "dcm2niix",
  "ConversionSoftwareVersion": "v1.0.20190902",
  "DerivedVendorReportedEchoSpacing": 0.000560011,
  "DeviceSerialNumber": "167006",
  "DwellTime": 2.1e-06,
  "EchoTime": 0.037,
  "EchoTrainLength": 104,
  "EffectiveEchoSpacing": 0.000560011,
  "FlipAngle": 52,
  "ImageComments": "Unaliased_MB4_PE3_LB",
  "ImageOrientationPatientDICOM": [0.999664, -0.0231511, 0.011643, 0.025828, 0.926685, -0.37495],
  "ImageType": [
    "ORIGINAL",
    "PRIMARY",
    "M",
    "MB",
    "ND",
    "MOSAIC"
],
  "ImagingFrequency": 123.259,
  "InPlanePhaseEncodingDirectionDICOM": "COL",
  "InstitutionAddress": "Chemin_Queen-Mary_4565_Montreal_District_CA_H3W_1W5",
  "InstitutionName": "IUGM",
  "InstitutionalDepartmentName": "Department",
  "MRAcquisitionType": "2D",
  "MagneticFieldStrength": 3,
  "Manufacturer": "Siemens",
  "ManufacturersModelName": "Prisma_fit",
  "Modality": "MR",
  "MultibandAccelerationFactor": 4,
  "PartialFourier": 1,
  "PatientPosition": "HFS",
  "PercentPhaseFOV": 100,
  "PhaseEncodingDirection": "j",
  "PhaseEncodingSteps": 104,
  "PhaseResolution": 1,
  "PixelBandwidth": 2290,
  "ProcedureStepDescription": "games_shinobi",
  "ProtocolName": "func_task-shinobi_run-1",
  "PulseSequenceDetails": "%CustomerSeq%_cmrr_mbep2d_bold",
  "ReceiveCoilActiveElements": "HC1-7;NC1,2",
  "ReceiveCoilName": "HeadNeck_64",
  "ReconMatrixPE": 104,
  "RepetitionTime": 1.49,
  "SAR": 0.02882,
  "ScanOptions": "FS",
  "ScanningSequence": "EP",
  "SequenceName": "epfid2d1_104",
  "SequenceVariant": "SK_SS",
  "SeriesDescription": "func_task-shinobi_run-1",
  "SeriesNumber": 9,
  "ShimSetting": [637, -7254, -8833, 583, 19, -210, -86, -6],
  "SliceThickness": 2,
  "SliceTiming": [0, 0.785, 0.1, 0.8825, 0.1975, 0.98, 0.295, 1.08, 0.3925, 1.1775, 0.49, 1.275, 0.59, 1.3725, 0.6875, 0, 0.785, 0.1, 0.8825, 0.1975, 0.98, 0.295, 1.08, 0.3925, 1.1775, 0.49, 1.275, 0.59, 1.3725, 0.6875, 0, 0.785, 0.1, 0.8825, 0.1975, 0.98, 0.295, 1.08, 0.3925, 1.1775, 0.49, 1.275, 0.59, 1.3725, 0.6875, 0, 0.785, 0.1, 0.8825, 0.1975, 0.98, 0.295, 1.08, 0.3925, 1.1775, 0.49, 1.275, 0.59, 1.3725, 0.6875],
  "SoftwareVersions": "syngo_MR_E11",
  "SpacingBetweenSlices": 2,
  "StationName": "MRC35049",
  "TaskName": "shinobi",
  "TotalReadoutTime": 0.0576811,
  "TxRefAmp": 215.713,
  "WipMemBlock": "626399c8-872e-4857-a2f2-63e99176c4d0||Sequence: R016 ve11c/master r/e634e98; Dec 19 2017 11:00:25 by eja",
  "dcmmeta_affine": [
    [-1.999328374862671, 0.05165592208504677, 0.004217690322548151, 103.6182632446289],
    [0.04630215838551521, 1.8533700704574585, -0.7502501606941223, -64.71329498291016],
    [0.02328590303659439, 0.7499005794525146, 1.8539435863494873, -68.04048156738281],
    [0.0, 0.0, 0.0, 1.0]
],
  "dcmmeta_reorient_transform": [
    [0.0, -1.0, 0.0, 103.0],
    [1.0, 0.0, 0.0, 0.0],
    [0.0, 0.0, 1.0, 0.0],
    [0.0, 0.0, 0.0, 1.0]
],
  "dcmmeta_shape": [104, 104, 60, 480],
  "dcmmeta_slice_dim": 2,
  "dcmmeta_version": 0.6,
  "global": {
    "const": {
      "AcquisitionMatrix": [104, 0, 0, 104],
      "AngioFlag": "N",
      "BitsAllocated": 16,
      "BitsStored": 16,
      "BodyPartExamined": "BRAIN",
      "Columns": 832,
      "EchoNumbers": 1,
      "EchoTime": 37.0,
      "EchoTrainLength": 104,
      "FlipAngle": 52.0,
      "HighBit": 15,
      "ImageOrientationPatient": [0.99966417820352, -0.023151079758, 0.01164295163318, 0.02582796136767, 0.92668505799087, -0.3749502896492],
      "ImagePositionPatient": [-855.49709974115, -783.95656322475, 273.68702276476],
      "ImageType": [
        "ORIGINAL",
        "PRIMARY",
        "M",
        "MB",
        "ND",
        "MOSAIC"
],
      "ImagedNucleus": "1H",
      "ImagingFrequency": 123.258965,
      "InPlanePhaseEncodingDirection": "COL",
      "MRAcquisitionType": "2D",
      "MagneticFieldStrength": 3.0,
      "Manufacturer": "SIEMENS",
      "ManufacturerModelName": "Prisma_fit",
      "Modality": "MR",
      "NumberOfAverages": 1.0,
      "NumberOfPhaseEncodingSteps": 104,
      "PercentPhaseFieldOfView": 100.0,
      "PercentSampling": 100.0,
      "PerformedProcedureStepStartTime": "152008.056000",
      "PhotometricInterpretation": "MONOCHROME2",
      "PixelBandwidth": 2290.0,
      "PixelRepresentation": 0,
      "PixelSpacing": [2.0, 2.0],
      "ProtocolName": "func_task-shinobi_run-1",
      "RepetitionTime": 1490.0,
      "Rows": 832,
      "SAR": 0.02882002377215,
      "SamplesPerPixel": 1,
      "ScanOptions": "FS",
      "ScanningSequence": "EP",
      "SequenceName": "epfid2d1_104",
      "SequenceVariant": [
        "SK",
        "SS"
],
      "SeriesDescription": "func_task-shinobi_run-1",
      "SeriesNumber": 9,
      "SeriesTime": "153333.355000",
      "SliceLocation": -38.577510176019,
      "SliceThickness": 2.0,
      "SmallestImagePixelValue": 0,
      "SoftwareVersions": "syngo MR E11",
      "SpacingBetweenSlices": 1.9999999903243,
      "SpecificCharacterSet": "ISO_IR 100",
      "StudyID": "1",
      "StudyTime": "152007.949000",
      "TransmitCoilName": "Body",
      "VariableFlipAngleFlag": "N",
      "WindowCenterWidthExplanation": "Algo1",
      "dBdt": 0.0},
    "slices": {}
  },
  "time": {
    "samples": {
      "AcquisitionNumber": [1, 2, 3, 4, 5, 6, 7, 8, 9, 10, 11, 12, 13, 14, 15, 16, 17, 18, 19, 20, 21, 22, 23, 24, 25, 26, 27, 28, 29, 30, 31, 32, 33, 34, 35, 36, 37, 38, 39, 40, 41, 42, 43, 44, 45, 46, 47, 48, 49, 50, 51, 52, 53, 54, 55, 56, 57, 58, 59, 60, 61, 62, 63, 64, 65, 66, 67, 68, 69, 70, 71, 72, 73, 74, 75, 76, 77, 78, 79, 80, 81, 82, 83, 84, 85, 86, 87, 88, 89, 90, 91, 92, 93, 94, 95, 96, 97, 98, 99, 100, 101, 102, 103, 104, 105, 106, 107, 108, 109, 110, 111, 112, 113, 114, 115, 116, 117, 118, 119, 120, 121, 122, 123, 124, 125, 126, 127, 128, 129, 130, 131, 132, 133, 134, 135, 136, 137, 138, 139, 140, 141, 142, 143, 144, 145, 146, 147, 148, 149, 150, 151, 152, 153, 154, 155, 156, 157, 158, 159, 160, 161, 162, 163, 164, 165, 166, 167, 168, 169, 170, 171, 172, 173, 174, 175, 176, 177, 178, 179, 180, 181, 182, 183, 184, 185, 186, 187, 188, 189, 190, 191, 192, 193, 194, 195, 196, 197, 198, 199, 200, 201, 202, 203, 204, 205, 206, 207, 208, 209, 210, 211, 212, 213, 214, 215, 216, 217, 218, 219, 220, 221, 222, 223, 224, 225, 226, 227, 228, 229, 230, 231, 232, 233, 234, 235, 236, 237, 238, 239, 240, 241, 242, 243, 244, 245, 246, 247, 248, 249, 250, 251, 252, 253, 254, 255, 256, 257, 258, 259, 260, 261, 262, 263, 264, 265, 266, 267, 268, 269, 270, 271, 272, 273, 274, 275, 276, 277, 278, 279, 280, 281, 282, 283, 284, 285, 286, 287, 288, 289, 290, 291, 292, 293, 294, 295, 296, 297, 298, 299, 300, 301, 302, 303, 304, 305, 306, 307, 308, 309, 310, 311, 312, 313, 314, 315, 316, 317, 318, 319, 320, 321, 322, 323, 324, 325, 326, 327, 328, 329, 330, 331, 332, 333, 334, 335, 336, 337, 338, 339, 340, 341, 342, 343, 344, 345, 346, 347, 348, 349, 350, 351, 352, 353, 354, 355, 356, 357, 358, 359, 360, 361, 362, 363, 364, 365, 366, 367, 368, 369, 370, 371, 372, 373, 374, 375, 376, 377, 378, 379, 380, 381, 382, 383, 384, 385, 386, 387, 388, 389, 390, 391, 392, 393, 394, 395, 396, 397, 398, 399, 400, 401, 402, 403, 404, 405, 406, 407, 408, 409, 410, 411, 412, 413, 414, 415, 416, 417, 418, 419, 420, 421, 422, 423, 424, 425, 426, 427, 428, 429, 430, 431, 432, 433, 434, 435, 436, 437, 438, 439, 440, 441, 442, 443, 444, 445, 446, 447, 448, 449, 450, 451, 452, 453, 454, 455, 456, 457, 458, 459, 460, 461, 462, 463, 464, 465, 466, 467, 468, 469, 470, 471, 472, 473, 474, 475, 476, 477, 478, 479, 480],
      "AcquisitionTime": ["153212.817500", "153214.307500", "153215.797500", "153217.287500", "153218.777500", "153220.267500", "153221.757500", "153223.247500", "153224.737500", "153226.227500", "153227.717500", "153229.207500", "153230.697500", "153232.187500", "153233.677500", "153235.167500", "153236.657500", "153238.147500", "153239.637500", "153241.127500", "153242.617500", "153244.107500", "153245.597500", "153247.087500", "153248.577500", "153250.067500", "153251.557500", "153253.047500", "153254.537500", "153256.027500", "153257.517500", "153259.007500", "153300.497500", "153301.987500", "153303.477500", "153304.967500", "153306.457500", "153307.947500", "153309.437500", "153310.927500", "153312.417500", "153313.907500", "153315.397500", "153316.887500", "153318.377500", "153319.867500", "153321.357500", "153322.847500", "153324.337500", "153325.827500", "153327.317500", "153328.807500", "153330.297500", "153331.787500", "153333.277500", "153334.767500", "153336.257500", "153337.747500", "153339.237500", "153340.727500", "153342.217500", "153343.707500", "153345.197500", "153346.687500", "153348.177500", "153349.667500", "153351.157500", "153352.647500", "153354.137500", "153355.627500", "153357.117500", "153358.607500", "153400.097500", "153401.587500", "153403.077500", "153404.567500", "153406.057500", "153407.547500", "153409.037500", "153410.527500", "153412.017500", "153413.507500", "153414.997500", "153416.487500", "153417.977500", "153419.467500", "153420.957500", "153422.447500", "153423.937500", "153425.427500", "153426.917500", "153428.407500", "153429.897500", "153431.387500", "153432.877500", "153434.367500", "153435.857500", "153437.347500", "153438.837500", "153440.327500", "153441.817500", "153443.307500", "153444.797500", "153446.287500", "153447.777500", "153449.267500", "153450.757500", "153452.247500", "153453.737500", "153455.227500", "153456.717500", "153458.207500", "153459.697500", "153501.187500", "153502.677500", "153504.167500", "153505.657500", "153507.147500", "153508.637500", "153510.127500", "153511.617500", "153513.107500", "153514.597500", "153516.087500", "153517.577500", "153519.067500", "153520.557500", "153522.047500", "153523.537500", "153525.027500", "153526.517500", "153528.007500", "153529.497500", "153530.987500", "153532.477500", "153533.967500", "153535.457500", "153536.947500", "153538.437500", "153539.927500", "153541.417500", "153542.907500", "153544.397500", "153545.887500", "153547.377500", "153548.867500", "153550.357500", "153551.847500", "153553.337500", "153554.827500", "153556.317500", "153557.807500", "153559.297500", "153600.787500", "153602.277500", "153603.767500", "153605.257500", "153606.747500", "153608.237500", "153609.727500", "153611.217500", "153612.707500", "153614.197500", "153615.687500", "153617.177500", "153618.667500", "153620.157500", "153621.647500", "153623.137500", "153624.627500", "153626.117500", "153627.607500", "153629.097500", "153630.587500", "153632.077500", "153633.567500", "153635.057500", "153636.547500", "153638.037500", "153639.527500", "153641.017500", "153642.507500", "153643.997500", "153645.487500", "153646.977500", "153648.467500", "153649.957500", "153651.447500", "153652.937500", "153654.427500", "153655.917500", "153657.407500", "153658.897500", "153700.387500", "153701.877500", "153703.367500", "153704.857500", "153706.347500", "153707.837500", "153709.327500", "153710.817500", "153712.307500", "153713.797500", "153715.287500", "153716.777500", "153718.267500", "153719.757500", "153721.247500", "153722.737500", "153724.227500", "153725.717500", "153727.207500", "153728.697500", "153730.187500", "153731.677500", "153733.167500", "153734.657500", "153736.147500", "153737.637500", "153739.127500", "153740.617500", "153742.107500", "153743.597500", "153745.087500", "153746.577500", "153748.067500", "153749.557500", "153751.047500", "153752.537500", "153754.027500", "153755.517500", "153757.007500", "153758.497500", "153759.987500", "153801.477500", "153802.967500", "153804.457500", "153805.947500", "153807.437500", "153808.927500", "153810.417500", "153811.907500", "153813.397500", "153814.887500", "153816.377500", "153817.867500", "153819.357500", "153820.847500", "153822.337500", "153823.827500", "153825.317500", "153826.807500", "153828.297500", "153829.787500", "153831.277500", "153832.767500", "153834.257500", "153835.747500", "153837.237500", "153838.727500", "153840.217500", "153841.707500", "153843.197500", "153844.687500", "153846.177500", "153847.667500", "153849.157500", "153850.647500", "153852.137500", "153853.627500", "153855.117500", "153856.607500", "153858.097500", "153859.587500", "153901.077500", "153902.567500", "153904.057500", "153905.547500", "153907.037500", "153908.527500", "153910.017500", "153911.507500", "153912.997500", "153914.487500", "153915.977500", "153917.467500", "153918.957500", "153920.447500", "153921.937500", "153923.427500", "153924.917500", "153926.407500", "153927.897500", "153929.387500", "153930.877500", "153932.367500", "153933.857500", "153935.347500", "153936.837500", "153938.327500", "153939.817500", "153941.307500", "153942.797500", "153944.287500", "153945.777500", "153947.267500", "153948.757500", "153950.247500", "153951.737500", "153953.227500", "153954.717500", "153956.207500", "153957.697500", "153959.187500", "154000.677500", "154002.167500", "154003.657500", "154005.147500", "154006.637500", "154008.127500", "154009.617500", "154011.107500", "154012.597500", "154014.087500", "154015.577500", "154017.067500", "154018.557500", "154020.047500", "154021.537500", "154023.027500", "154024.517500", "154026.007500", "154027.497500", "154028.987500", "154030.477500", "154031.967500", "154033.457500", "154034.947500", "154036.437500", "154037.927500", "154039.417500", "154040.907500", "154042.397500", "154043.887500", "154045.377500", "154046.867500", "154048.357500", "154049.847500", "154051.337500", "154052.827500", "154054.317500", "154055.807500", "154057.297500", "154058.787500", "154100.277500", "154101.767500", "154103.257500", "154104.747500", "154106.237500", "154107.727500", "154109.217500", "154110.707500", "154112.197500", "154113.687500", "154115.177500", "154116.667500", "154118.157500", "154119.647500", "154121.137500", "154122.627500", "154124.117500", "154125.607500", "154127.097500", "154128.587500", "154130.077500", "154131.567500", "154133.057500", "154134.547500", "154136.037500", "154137.527500", "154139.017500", "154140.507500", "154141.997500", "154143.487500", "154144.977500", "154146.467500", "154147.957500", "154149.447500", "154150.937500", "154152.427500", "154153.917500", "154155.407500", "154156.897500", "154158.387500", "154159.877500", "154201.367500", "154202.857500", "154204.347500", "154205.837500", "154207.327500", "154208.817500", "154210.307500", "154211.797500", "154213.287500", "154214.777500", "154216.267500", "154217.757500", "154219.247500", "154220.737500", "154222.227500", "154223.717500", "154225.207500", "154226.697500", "154228.187500", "154229.677500", "154231.167500", "154232.657500", "154234.147500", "154235.637500", "154237.127500", "154238.617500", "154240.107500", "154241.597500", "154243.087500", "154244.577500", "154246.067500", "154247.557500", "154249.047500", "154250.537500", "154252.027500", "154253.517500", "154255.007500", "154256.497500", "154257.987500", "154259.477500", "154300.967500", "154302.457500", "154303.947500", "154305.437500", "154306.927500", "154308.417500", "154309.907500", "154311.397500", "154312.887500", "154314.377500", "154315.867500", "154317.357500", "154318.847500", "154320.337500", "154321.827500", "154323.317500", "154324.807500", "154326.297500", "154327.787500", "154329.277500", "154330.767500", "154332.257500", "154333.747500", "154335.237500", "154336.727500", "154338.217500", "154339.707500", "154341.197500", "154342.687500", "154344.177500", "154345.667500", "154347.157500", "154348.647500", "154350.137500", "154351.627500", "154353.117500", "154354.607500", "154356.097500", "154357.587500", "154359.077500", "154400.567500", "154402.057500", "154403.547500", "154405.037500", "154406.527500"],
      "ContentTime": ["153333.358000", "153333.361000", "153333.364000", "153333.367000", "153333.370000", "153333.373000", "153333.381000", "153333.384000", "153333.386000", "153333.389000", "153333.392000", "153333.395000", "153333.398000", "153333.401000", "153333.404000", "153333.407000", "153353.325000", "153353.328000", "153353.331000", "153353.341000", "153353.344000", "153353.348000", "153353.352000", "153353.355000", "153353.358000", "153353.361000", "153353.364000", "153353.367000", "153353.370000", "153353.373000", "153353.376000", "153353.379000", "153353.382000", "153353.385000", "153353.388000", "153353.391000", "153413.326000", "153413.329000", "153413.332000", "153413.335000", "153413.338000", "153413.341000", "153413.344000", "153413.347000", "153413.349000", "153413.352000", "153413.356000", "153413.359000", "153413.361000", "153413.368000", "153413.372000", "153413.375000", "153413.378000", "153413.381000", "153413.384000", "153413.387000", "153433.326000", "153433.329000", "153433.332000", "153433.335000", "153433.338000", "153433.341000", "153433.344000", "153433.346000", "153433.350000", "153433.352000", "153433.355000", "153433.358000", "153433.361000", "153433.364000", "153433.367000", "153433.370000", "153433.373000", "153433.376000", "153433.379000", "153433.381000", "153433.385000", "153453.326000", "153453.329000", "153453.332000", "153453.335000", "153453.338000", "153453.341000", "153453.343000", "153453.346000", "153453.349000", "153453.352000", "153453.362000", "153453.365000", "153453.368000", "153453.371000", "153453.374000", "153453.377000", "153453.380000", "153453.383000", "153453.386000", "153453.389000", "153513.325000", "153513.328000", "153513.331000", "153513.334000", "153513.337000", "153513.340000", "153513.343000", "153513.346000", "153513.349000", "153513.351000", "153513.354000", "153513.357000", "153513.360000", "153513.363000", "153513.366000", "153513.369000", "153513.372000", "153513.375000", "153513.378000", "153513.381000", "153553.325000", "153553.328000", "153553.331000", "153553.334000", "153553.337000", "153553.340000", "153553.343000", "153553.346000", "153553.349000", "153553.352000", "153553.355000", "153553.358000", "153553.361000", "153553.363000", "153553.366000", "153553.369000", "153553.372000", "153553.375000", "153553.378000", "153553.381000", "153553.384000", "153553.387000", "153553.390000", "153553.393000", "153553.396000", "153553.399000", "153553.402000", "153553.405000", "153553.408000", "153553.410000", "153633.326000", "153633.329000", "153633.332000", "153633.335000", "153633.338000", "153633.341000", "153633.344000", "153633.347000", "153633.350000", "153633.363000", "153633.366000", "153633.369000", "153633.372000", "153633.375000", "153633.378000", "153633.381000", "153633.384000", "153633.387000", "153633.389000", "153633.392000", "153633.395000", "153633.398000", "153633.401000", "153633.404000", "153633.407000", "153633.410000", "153633.413000", "153713.326000", "153713.329000", "153713.332000", "153713.335000", "153713.338000", "153713.341000", "153713.344000", "153713.347000", "153713.350000", "153713.353000", "153713.356000", "153713.359000", "153713.362000", "153713.365000", "153713.368000", "153713.371000", "153713.373000", "153713.376000", "153713.379000", "153713.382000", "153713.385000", "153713.388000", "153713.404000", "153713.407000", "153713.410000", "153713.413000", "153713.416000", "153753.325000", "153753.328000", "153753.331000", "153753.334000", "153753.337000", "153753.340000", "153753.343000", "153753.346000", "153753.349000", "153753.352000", "153753.354000", "153753.358000", "153753.361000", "153753.363000", "153753.366000", "153753.369000", "153753.372000", "153753.375000", "153753.378000", "153753.381000", "153753.385000", "153753.389000", "153753.392000", "153753.395000", "153753.398000", "153753.401000", "153833.325000", "153833.328000", "153833.331000", "153833.334000", "153833.337000", "153833.340000", "153833.343000", "153833.346000", "153833.349000", "153833.352000", "153833.355000", "153833.358000", "153833.361000", "153833.363000", "153833.366000", "153833.369000", "153833.372000", "153833.375000", "153833.378000", "153833.381000", "153833.384000", "153833.387000", "153833.390000", "153833.393000", "153833.396000", "153833.399000", "153833.402000", "153913.326000", "153913.329000", "153913.332000", "153913.335000", "153913.338000", "153913.341000", "153913.344000", "153913.347000", "153913.350000", "153913.353000", "153913.356000", "153913.359000", "153913.362000", "153913.364000", "153913.368000", "153913.370000", "153913.373000", "153913.376000", "153913.379000", "153913.382000", "153913.395000", "153913.398000", "153913.401000", "153913.404000", "153913.407000", "153913.410000", "153913.413000", "153953.325000", "153953.328000", "153953.331000", "153953.334000", "153953.337000", "153953.340000", "153953.343000", "153953.346000", "153953.349000", "153953.352000", "153953.355000", "153953.358000", "153953.361000", "153953.364000", "153953.367000", "153953.370000", "153953.372000", "153953.375000", "153953.378000", "153953.381000", "153953.384000", "153953.387000", "153953.390000", "153953.393000", "153953.396000", "153953.399000", "153953.402000", "154033.325000", "154033.328000", "154033.331000", "154033.334000", "154033.337000", "154033.340000", "154033.343000", "154033.346000", "154033.349000", "154033.352000", "154033.355000", "154033.358000", "154033.361000", "154033.364000", "154033.367000", "154033.369000", "154033.373000", "154033.375000", "154033.378000", "154033.381000", "154033.384000", "154033.387000", "154033.390000", "154033.393000", "154033.396000", "154033.399000", "154033.402000", "154113.326000", "154113.329000", "154113.332000", "154113.335000", "154113.338000", "154113.341000", "154113.344000", "154113.347000", "154113.350000", "154113.353000", "154113.356000", "154113.359000", "154113.362000", "154113.365000", "154113.368000", "154113.371000", "154113.374000", "154113.388000", "154113.391000", "154113.394000", "154113.397000", "154113.400000", "154113.402000", "154113.405000", "154113.408000", "154113.411000", "154113.414000", "154153.326000", "154153.329000", "154153.332000", "154153.335000", "154153.338000", "154153.341000", "154153.344000", "154153.347000", "154153.350000", "154153.353000", "154153.356000", "154153.359000", "154153.362000", "154153.365000", "154153.368000", "154153.371000", "154153.374000", "154153.377000", "154153.380000", "154153.383000", "154153.386000", "154153.389000", "154153.392000", "154153.395000", "154153.402000", "154153.406000", "154233.325000", "154233.328000", "154233.331000", "154233.334000", "154233.337000", "154233.340000", "154233.343000", "154233.346000", "154233.349000", "154233.352000", "154233.355000", "154233.358000", "154233.361000", "154233.364000", "154233.367000", "154233.370000", "154233.373000", "154233.376000", "154233.385000", "154233.388000", "154233.391000", "154233.394000", "154233.397000", "154233.399000", "154233.403000", "154233.405000", "154233.408000", "154313.325000", "154313.328000", "154313.331000", "154313.334000", "154313.337000", "154313.340000", "154313.343000", "154313.346000", "154313.349000", "154313.352000", "154313.355000", "154313.358000", "154313.361000", "154313.364000", "154313.367000", "154313.370000", "154313.373000", "154313.376000", "154313.379000", "154313.382000", "154313.385000", "154313.388000", "154313.390000", "154313.393000", "154313.396000", "154313.399000", "154313.402000", "154353.326000", "154353.329000", "154353.332000", "154353.335000", "154353.338000", "154353.341000", "154353.344000", "154353.347000", "154353.350000", "154353.353000", "154353.356000", "154353.359000", "154353.362000", "154353.365000", "154353.368000", "154353.371000", "154353.374000", "154353.377000", "154353.380000", "154353.383000", "154353.386000", "154353.389000", "154353.392000", "154353.395000", "154353.397000", "154353.400000", "154353.403000", "154410.009000", "154410.012000", "154410.015000", "154410.018000", "154410.021000", "154410.024000", "154410.027000", "154410.030000", "154410.033000", "154410.036000", "154410.039000"],
