{
  "AcquisitionMatrixPE": 104,
  "AcquisitionNumber": 1,
  "AcquisitionTime": "15:58:59.285000",
  "BandwidthPerPixelPhaseEncode": 17.17,
  "BaseResolution": 104,
  "BodyPartExamined": "BRAIN",
  "CoilString": "HC1-7;NC1_2",
  "ConsistencyInfo": "N4_VE11C_LATEST_20160120",
  "ConversionSoftware": "dcm2niix",
  "ConversionSoftwareVersion": "v1.0.20190902",
  "DerivedVendorReportedEchoSpacing": 0.000560011,
  "DeviceSerialNumber": "167006",
  "DwellTime": 2.1e-06,
  "EchoTime": 0.037,
  "EchoTrainLength": 104,
  "EffectiveEchoSpacing": 0.000560011,
  "FlipAngle": 52,
  "ImageComments": "Unaliased_MB4_PE3_LB",
  "ImageOrientationPatientDICOM": [0.999664, -0.0231511, 0.011643, 0.025828, 0.926685, -0.37495],
  "ImageType": [
    "ORIGINAL",
    "PRIMARY",
    "M",
    "MB",
    "ND",
    "MOSAIC"
],
  "ImagingFrequency": 123.259,
  "InPlanePhaseEncodingDirectionDICOM": "COL",
  "InstitutionAddress": "Chemin_Queen-Mary_4565_Montreal_District_CA_H3W_1W5",
  "InstitutionName": "IUGM",
  "InstitutionalDepartmentName": "Department",
  "MRAcquisitionType": "2D",
  "MagneticFieldStrength": 3,
  "Manufacturer": "Siemens",
  "ManufacturersModelName": "Prisma_fit",
  "Modality": "MR",
  "MultibandAccelerationFactor": 4,
  "PartialFourier": 1,
  "PatientPosition": "HFS",
  "PercentPhaseFOV": 100,
  "PhaseEncodingDirection": "j",
  "PhaseEncodingSteps": 104,
  "PhaseResolution": 1,
  "PixelBandwidth": 2290,
  "ProcedureStepDescription": "games_shinobi",
  "ProtocolName": "func_task-shinobi_run-3",
  "PulseSequenceDetails": "%CustomerSeq%_cmrr_mbep2d_bold",
  "ReceiveCoilActiveElements": "HC1-7;NC1,2",
  "ReceiveCoilName": "HeadNeck_64",
  "ReconMatrixPE": 104,
  "RepetitionTime": 1.49,
  "SAR": 0.02882,
  "ScanOptions": "FS",
  "ScanningSequence": "EP",
  "SequenceName": "epfid2d1_104",
  "SequenceVariant": "SK_SS",
  "SeriesDescription": "func_task-shinobi_run-3",
  "SeriesNumber": 13,
  "ShimSetting": [637, -7254, -8833, 583, 19, -210, -86, -6],
  "SliceThickness": 2,
  "SliceTiming": [0, 0.7825, 0.0975, 0.88, 0.195, 0.98, 0.2925, 1.0775, 0.39, 1.175, 0.49, 1.2725, 0.5875, 1.37, 0.685, 0, 0.7825, 0.0975, 0.88, 0.195, 0.98, 0.2925, 1.0775, 0.39, 1.175, 0.49, 1.2725, 0.5875, 1.37, 0.685, 0, 0.7825, 0.0975, 0.88, 0.195, 0.98, 0.2925, 1.0775, 0.39, 1.175, 0.49, 1.2725, 0.5875, 1.37, 0.685, 0, 0.7825, 0.0975, 0.88, 0.195, 0.98, 0.2925, 1.0775, 0.39, 1.175, 0.49, 1.2725, 0.5875, 1.37, 0.685],
  "SoftwareVersions": "syngo_MR_E11",
  "SpacingBetweenSlices": 2,
  "StationName": "MRC35049",
  "TaskName": "shinobi",
  "TotalReadoutTime": 0.0576811,
  "TxRefAmp": 215.713,
  "WipMemBlock": "de4d3c78-0272-4760-a501-e17dd5a4cfa8||Sequence: R016 ve11c/master r/e634e98; Dec 19 2017 11:00:25 by eja",
  "dcmmeta_affine": [
    [-1.999328374862671, 0.05165592208504677, 0.004217690322548151, 103.6182632446289],
    [0.04630215838551521, 1.8533700704574585, -0.7502501606941223, -64.71329498291016],
    [0.02328590303659439, 0.7499005794525146, 1.8539435863494873, -68.04048156738281],
    [0.0, 0.0, 0.0, 1.0]
],
  "dcmmeta_reorient_transform": [
    [0.0, -1.0, 0.0, 103.0],
    [1.0, 0.0, 0.0, 0.0],
    [0.0, 0.0, 1.0, 0.0],
    [0.0, 0.0, 0.0, 1.0]
],
  "dcmmeta_shape": [104, 104, 60, 412],
  "dcmmeta_slice_dim": 2,
  "dcmmeta_version": 0.6,
  "global": {
    "const": {
      "AcquisitionMatrix": [104, 0, 0, 104],
      "AngioFlag": "N",
      "BitsAllocated": 16,
      "BitsStored": 16,
      "BodyPartExamined": "BRAIN",
      "Columns": 832,
      "EchoNumbers": 1,
      "EchoTime": 37.0,
      "EchoTrainLength": 104,
      "FlipAngle": 52.0,
      "HighBit": 15,
      "ImageOrientationPatient": [0.99966417820352, -0.023151079758, 0.01164295163318, 0.02582796136767, 0.92668505799087, -0.3749502896492],
      "ImagePositionPatient": [-855.49709974115, -783.95656322475, 273.68702276476],
      "ImageType": [
        "ORIGINAL",
        "PRIMARY",
        "M",
        "MB",
        "ND",
        "MOSAIC"
],
      "ImagedNucleus": "1H",
      "ImagingFrequency": 123.258981,
      "InPlanePhaseEncodingDirection": "COL",
      "MRAcquisitionType": "2D",
      "MagneticFieldStrength": 3.0,
      "Manufacturer": "SIEMENS",
      "ManufacturerModelName": "Prisma_fit",
      "Modality": "MR",
      "NumberOfAverages": 1.0,
      "NumberOfPhaseEncodingSteps": 104,
      "PercentPhaseFieldOfView": 100.0,
      "PercentSampling": 100.0,
      "PerformedProcedureStepStartTime": "152008.056000",
      "PhotometricInterpretation": "MONOCHROME2",
      "PixelBandwidth": 2290.0,
      "PixelRepresentation": 0,
      "PixelSpacing": [2.0, 2.0],
      "ProtocolName": "func_task-shinobi_run-3",
      "RepetitionTime": 1490.0,
      "Rows": 832,
      "SAR": 0.02882002377215,
      "SamplesPerPixel": 1,
      "ScanOptions": "FS",
      "ScanningSequence": "EP",
      "SequenceName": "epfid2d1_104",
      "SequenceVariant": [
        "SK",
        "SS"
],
      "SeriesDescription": "func_task-shinobi_run-3",
      "SeriesNumber": 13,
      "SeriesTime": "160018.545000",
      "SliceLocation": -38.577510176019,
      "SliceThickness": 2.0,
      "SmallestImagePixelValue": 0,
      "SoftwareVersions": "syngo MR E11",
      "SpacingBetweenSlices": 1.9999999903243,
      "SpecificCharacterSet": "ISO_IR 100",
      "StudyID": "1",
      "StudyTime": "152007.949000",
      "TransmitCoilName": "Body",
      "VariableFlipAngleFlag": "N",
      "WindowCenterWidthExplanation": "Algo1",
      "dBdt": 0.0},
    "slices": {}
  },
  "time": {
    "samples": {
      "AcquisitionNumber": [1, 2, 3, 4, 5, 6, 7, 8, 9, 10, 11, 12, 13, 14, 15, 16, 17, 18, 19, 20, 21, 22, 23, 24, 25, 26, 27, 28, 29, 30, 31, 32, 33, 34, 35, 36, 37, 38, 39, 40, 41, 42, 43, 44, 45, 46, 47, 48, 49, 50, 51, 52, 53, 54, 55, 56, 57, 58, 59, 60, 61, 62, 63, 64, 65, 66, 67, 68, 69, 70, 71, 72, 73, 74, 75, 76, 77, 78, 79, 80, 81, 82, 83, 84, 85, 86, 87, 88, 89, 90, 91, 92, 93, 94, 95, 96, 97, 98, 99, 100, 101, 102, 103, 104, 105, 106, 107, 108, 109, 110, 111, 112, 113, 114, 115, 116, 117, 118, 119, 120, 121, 122, 123, 124, 125, 126, 127, 128, 129, 130, 131, 132, 133, 134, 135, 136, 137, 138, 139, 140, 141, 142, 143, 144, 145, 146, 147, 148, 149, 150, 151, 152, 153, 154, 155, 156, 157, 158, 159, 160, 161, 162, 163, 164, 165, 166, 167, 168, 169, 170, 171, 172, 173, 174, 175, 176, 177, 178, 179, 180, 181, 182, 183, 184, 185, 186, 187, 188, 189, 190, 191, 192, 193, 194, 195, 196, 197, 198, 199, 200, 201, 202, 203, 204, 205, 206, 207, 208, 209, 210, 211, 212, 213, 214, 215, 216, 217, 218, 219, 220, 221, 222, 223, 224, 225, 226, 227, 228, 229, 230, 231, 232, 233, 234, 235, 236, 237, 238, 239, 240, 241, 242, 243, 244, 245, 246, 247, 248, 249, 250, 251, 252, 253, 254, 255, 256, 257, 258, 259, 260, 261, 262, 263, 264, 265, 266, 267, 268, 269, 270, 271, 272, 273, 274, 275, 276, 277, 278, 279, 280, 281, 282, 283, 284, 285, 286, 287, 288, 289, 290, 291, 292, 293, 294, 295, 296, 297, 298, 299, 300, 301, 302, 303, 304, 305, 306, 307, 308, 309, 310, 311, 312, 313, 314, 315, 316, 317, 318, 319, 320, 321, 322, 323, 324, 325, 326, 327, 328, 329, 330, 331, 332, 333, 334, 335, 336, 337, 338, 339, 340, 341, 342, 343, 344, 345, 346, 347, 348, 349, 350, 351, 352, 353, 354, 355, 356, 357, 358, 359, 360, 361, 362, 363, 364, 365, 366, 367, 368, 369, 370, 371, 372, 373, 374, 375, 376, 377, 378, 379, 380, 381, 382, 383, 384, 385, 386, 387, 388, 389, 390, 391, 392, 393, 394, 395, 396, 397, 398, 399, 400, 401, 402, 403, 404, 405, 406, 407, 408, 409, 410, 411, 412],
      "AcquisitionTime": ["155859.285000", "155900.775000", "155902.265000", "155903.755000", "155905.245000", "155906.735000", "155908.225000", "155909.715000", "155911.205000", "155912.695000", "155914.185000", "155915.675000", "155917.165000", "155918.655000", "155920.145000", "155921.635000", "155923.125000", "155924.615000", "155926.105000", "155927.595000", "155929.085000", "155930.575000", "155932.065000", "155933.555000", "155935.045000", "155936.535000", "155938.025000", "155939.515000", "155941.005000", "155942.495000", "155943.985000", "155945.475000", "155946.965000", "155948.455000", "155949.945000", "155951.435000", "155952.925000", "155954.415000", "155955.905000", "155957.395000", "155958.885000", "160000.375000", "160001.865000", "160003.355000", "160004.845000", "160006.335000", "160007.825000", "160009.315000", "160010.805000", "160012.295000", "160013.785000", "160015.275000", "160016.765000", "160018.255000", "160019.745000", "160021.235000", "160022.725000", "160024.215000", "160025.705000", "160027.195000", "160028.685000", "160030.175000", "160031.665000", "160033.155000", "160034.645000", "160036.135000", "160037.625000", "160039.115000", "160040.605000", "160042.095000", "160043.585000", "160045.075000", "160046.565000", "160048.055000", "160049.545000", "160051.035000", "160052.525000", "160054.015000", "160055.505000", "160056.995000", "160058.485000", "160059.975000", "160101.465000", "160102.955000", "160104.445000", "160105.935000", "160107.425000", "160108.915000", "160110.405000", "160111.895000", "160113.385000", "160114.875000", "160116.365000", "160117.855000", "160119.345000", "160120.835000", "160122.325000", "160123.815000", "160125.305000", "160126.795000", "160128.285000", "160129.775000", "160131.265000", "160132.755000", "160134.245000", "160135.735000", "160137.225000", "160138.715000", "160140.205000", "160141.695000", "160143.185000", "160144.675000", "160146.165000", "160147.655000", "160149.145000", "160150.635000", "160152.125000", "160153.615000", "160155.105000", "160156.595000", "160158.085000", "160159.575000", "160201.065000", "160202.555000", "160204.045000", "160205.535000", "160207.025000", "160208.515000", "160210.005000", "160211.495000", "160212.985000", "160214.475000", "160215.965000", "160217.455000", "160218.945000", "160220.435000", "160221.925000", "160223.415000", "160224.905000", "160226.395000", "160227.885000", "160229.375000", "160230.865000", "160232.355000", "160233.845000", "160235.335000", "160236.825000", "160238.315000", "160239.805000", "160241.295000", "160242.785000", "160244.275000", "160245.765000", "160247.255000", "160248.745000", "160250.235000", "160251.725000", "160253.215000", "160254.705000", "160256.195000", "160257.685000", "160259.175000", "160300.665000", "160302.155000", "160303.645000", "160305.135000", "160306.625000", "160308.115000", "160309.605000", "160311.095000", "160312.585000", "160314.075000", "160315.565000", "160317.055000", "160318.545000", "160320.035000", "160321.525000", "160323.015000", "160324.505000", "160325.995000", "160327.485000", "160328.975000", "160330.465000", "160331.955000", "160333.445000", "160334.935000", "160336.425000", "160337.915000", "160339.405000", "160340.895000", "160342.385000", "160343.875000", "160345.365000", "160346.855000", "160348.345000", "160349.835000", "160351.325000", "160352.815000", "160354.305000", "160355.795000", "160357.285000", "160358.775000", "160400.265000", "160401.755000", "160403.245000", "160404.735000", "160406.225000", "160407.715000", "160409.205000", "160410.695000", "160412.185000", "160413.675000", "160415.165000", "160416.655000", "160418.145000", "160419.635000", "160421.125000", "160422.615000", "160424.105000", "160425.595000", "160427.085000", "160428.575000", "160430.065000", "160431.555000", "160433.045000", "160434.535000", "160436.025000", "160437.515000", "160439.005000", "160440.495000", "160441.985000", "160443.475000", "160444.965000", "160446.455000", "160447.945000", "160449.435000", "160450.925000", "160452.415000", "160453.905000", "160455.395000", "160456.885000", "160458.375000", "160459.865000", "160501.355000", "160502.845000", "160504.335000", "160505.825000", "160507.315000", "160508.805000", "160510.295000", "160511.785000", "160513.275000", "160514.765000", "160516.255000", "160517.745000", "160519.235000", "160520.725000", "160522.215000", "160523.705000", "160525.195000", "160526.685000", "160528.175000", "160529.665000", "160531.155000", "160532.645000", "160534.135000", "160535.625000", "160537.115000", "160538.605000", "160540.095000", "160541.585000", "160543.075000", "160544.565000", "160546.055000", "160547.545000", "160549.035000", "160550.525000", "160552.015000", "160553.505000", "160554.995000", "160556.485000", "160557.975000", "160559.465000", "160600.955000", "160602.445000", "160603.935000", "160605.425000", "160606.915000", "160608.405000", "160609.895000", "160611.385000", "160612.875000", "160614.365000", "160615.855000", "160617.345000", "160618.835000", "160620.325000", "160621.815000", "160623.305000", "160624.795000", "160626.285000", "160627.775000", "160629.265000", "160630.755000", "160632.245000", "160633.735000", "160635.225000", "160636.715000", "160638.205000", "160639.695000", "160641.185000", "160642.675000", "160644.165000", "160645.655000", "160647.145000", "160648.635000", "160650.125000", "160651.615000", "160653.105000", "160654.595000", "160656.085000", "160657.575000", "160659.065000", "160700.555000", "160702.045000", "160703.535000", "160705.025000", "160706.515000", "160708.005000", "160709.495000", "160710.985000", "160712.475000", "160713.965000", "160715.455000", "160716.945000", "160718.435000", "160719.925000", "160721.415000", "160722.905000", "160724.395000", "160725.885000", "160727.375000", "160728.865000", "160730.355000", "160731.845000", "160733.335000", "160734.825000", "160736.315000", "160737.805000", "160739.295000", "160740.785000", "160742.275000", "160743.765000", "160745.255000", "160746.745000", "160748.235000", "160749.725000", "160751.215000", "160752.705000", "160754.195000", "160755.685000", "160757.175000", "160758.665000", "160800.155000", "160801.645000", "160803.135000", "160804.625000", "160806.115000", "160807.605000", "160809.095000", "160810.585000", "160812.075000", "160813.565000", "160815.055000", "160816.545000", "160818.035000", "160819.525000", "160821.015000", "160822.505000", "160823.995000", "160825.485000", "160826.975000", "160828.465000", "160829.955000", "160831.445000", "160832.935000", "160834.425000", "160835.915000", "160837.405000", "160838.895000", "160840.385000", "160841.875000", "160843.365000", "160844.855000", "160846.345000", "160847.835000", "160849.325000", "160850.815000", "160852.305000", "160853.795000", "160855.285000", "160856.775000", "160858.265000", "160859.755000", "160901.245000", "160902.735000", "160904.225000", "160905.715000", "160907.205000", "160908.695000", "160910.185000", "160911.675000"],
      "ContentTime": ["160018.547000", "160018.550000", "160018.553000", "160018.556000", "160018.559000", "160018.570000", "160018.573000", "160018.577000", "160018.579000", "160018.582000", "160018.585000", "160018.588000", "160018.596000", "160018.599000", "160018.602000", "160018.613000", "160018.616000", "160018.619000", "160018.622000", "160018.625000", "160018.628000", "160018.631000", "160018.634000", "160038.520000", "160038.523000", "160038.526000", "160038.529000", "160038.532000", "160038.535000", "160038.538000", "160038.541000", "160038.544000", "160038.547000", "160038.549000", "160038.553000", "160038.556000", "160038.559000", "160038.562000", "160038.565000", "160038.573000", "160038.576000", "160038.579000", "160038.582000", "160058.520000", "160058.527000", "160058.530000", "160058.533000", "160058.536000", "160058.539000", "160058.542000", "160058.545000", "160058.548000", "160058.559000", "160058.562000", "160058.565000", "160058.568000", "160058.571000", "160058.577000", "160058.580000", "160058.583000", "160058.586000", "160058.589000", "160058.592000", "160118.519000", "160118.522000", "160118.525000", "160118.528000", "160118.531000", "160118.534000", "160118.536000", "160118.540000", "160118.543000", "160118.546000", "160118.549000", "160118.552000", "160118.555000", "160118.558000", "160118.561000", "160118.564000", "160118.567000", "160118.570000", "160118.573000", "160118.575000", "160138.520000", "160138.523000", "160138.526000", "160138.529000", "160138.532000", "160138.535000", "160138.538000", "160138.540000", "160138.543000", "160138.546000", "160138.549000", "160138.552000", "160138.555000", "160138.558000", "160138.561000", "160138.564000", "160138.567000", "160138.570000", "160138.573000", "160138.576000", "160138.579000", "160218.520000", "160218.523000", "160218.526000", "160218.529000", "160218.532000", "160218.535000", "160218.538000", "160218.541000", "160218.544000", "160218.547000", "160218.550000", "160218.552000", "160218.555000", "160218.558000", "160218.561000", "160218.564000", "160218.567000", "160218.570000", "160218.573000", "160218.576000", "160218.579000", "160218.582000", "160218.585000", "160218.588000", "160218.591000", "160218.593000", "160218.596000", "160218.599000", "160218.602000", "160238.520000", "160238.523000", "160238.526000", "160238.529000", "160238.532000", "160238.535000", "160238.538000", "160238.541000", "160238.544000", "160238.547000", "160238.550000", "160238.553000", "160238.555000", "160318.520000", "160318.523000", "160318.526000", "160318.529000", "160318.532000", "160318.535000", "160318.538000", "160318.541000", "160318.544000", "160318.547000", "160318.550000", "160318.553000", "160318.556000", "160318.559000", "160318.562000", "160318.564000", "160318.568000", "160318.570000", "160318.573000", "160318.576000", "160318.579000", "160318.582000", "160318.585000", "160318.588000", "160318.591000", "160318.594000", "160318.597000", "160358.520000", "160358.523000", "160358.526000", "160358.529000", "160358.532000", "160358.535000", "160358.538000", "160358.541000", "160358.544000", "160358.547000", "160358.550000", "160358.553000", "160358.556000", "160358.559000", "160358.562000", "160358.565000", "160358.568000", "160358.571000", "160358.574000", "160358.577000", "160358.580000", "160358.583000", "160358.586000", "160358.589000", "160358.592000", "160358.595000", "160358.598000", "160438.520000", "160438.523000", "160438.526000", "160438.529000", "160438.532000", "160438.535000", "160438.538000", "160438.541000", "160438.544000", "160438.547000", "160438.550000", "160438.553000", "160438.556000", "160438.559000", "160438.562000", "160438.565000", "160438.568000", "160438.571000", "160438.580000", "160438.583000", "160438.586000", "160438.589000", "160438.592000", "160438.595000", "160438.598000", "160438.601000", "160438.604000", "160518.520000", "160518.523000", "160518.526000", "160518.529000", "160518.532000", "160518.535000", "160518.538000", "160518.541000", "160518.544000", "160518.547000", "160518.550000", "160518.553000", "160518.555000", "160518.566000", "160518.569000", "160518.572000", "160518.575000", "160518.578000", "160518.581000", "160518.584000", "160518.587000", "160518.590000", "160518.601000", "160518.604000", "160518.607000", "160518.610000", "160518.613000", "160558.519000", "160558.522000", "160558.525000", "160558.528000", "160558.531000", "160558.534000", "160558.537000", "160558.540000", "160558.543000", "160558.546000", "160558.549000", "160558.551000", "160558.554000", "160558.558000", "160558.561000", "160558.564000", "160558.567000", "160558.570000", "160558.573000", "160558.576000", "160558.579000", "160558.582000", "160558.585000", "160558.588000", "160558.591000", "160558.594000", "160558.597000", "160638.520000", "160638.523000", "160638.526000", "160638.529000", "160638.532000", "160638.535000", "160638.538000", "160638.541000", "160638.544000", "160638.547000", "160638.550000", "160638.553000", "160638.556000", "160638.559000", "160638.562000", "160638.565000", "160638.568000", "160638.571000", "160638.574000", "160638.577000", "160638.580000", "160638.583000", "160638.586000", "160638.589000", "160638.592000", "160638.595000", "160638.597000", "160718.522000", "160718.525000", "160718.528000", "160718.530000", "160718.534000", "160718.537000", "160718.539000", "160718.542000", "160718.545000", "160718.548000", "160718.551000", "160718.560000", "160718.563000", "160718.566000", "160718.569000", "160718.572000", "160718.575000", "160718.578000", "160718.581000", "160718.584000", "160718.587000", "160718.590000", "160718.593000", "160718.595000", "160718.598000", "160718.601000", "160758.520000", "160758.523000", "160758.526000", "160758.529000", "160758.532000", "160758.535000", "160758.538000", "160758.541000", "160758.544000", "160758.547000", "160758.550000", "160758.553000", "160758.556000", "160758.559000", "160758.562000", "160758.565000", "160758.568000", "160758.571000", "160758.574000", "160758.577000", "160758.580000", "160758.583000", "160758.586000", "160758.588000", "160758.597000", "160758.600000", "160758.603000", "160838.520000", "160838.523000", "160838.526000", "160838.529000", "160838.532000", "160838.535000", "160838.538000", "160838.541000", "160838.544000", "160838.547000", "160838.550000", "160838.553000", "160838.556000", "160838.559000", "160838.562000", "160838.565000", "160838.568000", "160838.571000", "160838.574000", "160838.577000", "160838.580000", "160838.582000", "160838.586000", "160838.589000", "160838.592000", "160838.595000", "160838.597000", "160914.127000", "160914.130000", "160914.133000", "160914.136000", "160914.139000", "160914.142000", "160914.145000", "160914.148000", "160914.151000", "160914.154000", "160914.157000", "160914.160000", "160914.163000", "160914.166000", "160914.169000", "160914.172000", "160914.175000", "160914.178000", "160914.181000", "160914.184000", "160914.187000", "160914.190000", "160914.197000", "160914.200000"],
      "InstanceCreationTime": ["160018.547000", "160018.550000", "160018.553000", "160018.556000", "160018.559000", "160018.570000", "160018.573000", "160018.577000", "160018.579000", "160018.582000", "160018.585000", "160018.588000", "160018.596000", "160018.599000", "160018.602000", "160018.613000", "160018.616000", "160018.619000", "160018.622000", "160018.625000", "160018.628000", "160018.631000", "160018.634000", "160038.520000", "160038.523000", "160038.526000", "160038.529000", "160038.532000", "160038.535000", "160038.538000", "160038.541000", "160038.544000", "160038.547000", "160038.549000", "160038.553000", "160038.556000", "160038.559000", "160038.562000", "160038.565000", "160038.573000", "160038.576000", "160038.579000", "160038.582000", "160058.520000", "160058.527000", "160058.530000", "160058.533000", "160058.536000", "160058.539000", "160058.542000", "160058.545000", "160058.548000", "160058.559000", "160058.562000", "160058.565000", "160058.568000", "160058.571000", "160058.577000", "160058.580000", "160058.583000", "160058.586000", "160058.589000", "160058.592000", "160118.519000", "160118.522000", "160118.525000", "160118.528000", "160118.531000", "160118.534000", "160118.536000", "160118.540000", "160118.543000", "160118.546000", "160118.549000", "160118.552000", "160118.555000", "160118.558000", "160118.561000", "160118.564000", "160118.567000", "160118.570000", "160118.573000", "160118.575000", "160138.520000", "160138.523000", "160138.526000", "160138.529000", "160138.532000", "160138.535000", "160138.538000", "160138.540000", "160138.543000", "160138.546000", "160138.549000", "160138.552000", "160138.555000", "160138.558000", "160138.561000", "160138.564000", "160138.567000", "160138.570000", "160138.573000", "160138.576000", "160138.579000", "160218.520000", "160218.523000", "160218.526000", "160218.529000", "160218.532000", "160218.535000", "160218.538000", "160218.541000", "160218.544000", "160218.547000", "160218.550000", "160218.552000", "160218.555000", "160218.558000", "160218.561000", "160218.564000", "160218.567000", "160218.570000", "160218.573000", "160218.576000", "160218.579000", "160218.582000", "160218.585000", "160218.588000", "160218.591000", "160218.593000", "160218.596000", "160218.599000", "160218.602000", "160238.520000", "160238.523000", "160238.526000", "160238.529000", "160238.532000", "160238.535000", "160238.538000", "160238.541000", "160238.544000", "160238.547000", "160238.550000", "160238.553000", "160238.555000", "160318.520000", "160318.523000", "160318.526000", "160318.529000", "160318.532000", "160318.535000", "160318.538000", "160318.541000", "160318.544000", "160318.547000", "160318.550000", "160318.553000", "160318.556000", "160318.559000", "160318.562000", "160318.564000", "160318.568000", "160318.570000", "160318.573000", "160318.576000", "160318.579000", "160318.582000", "160318.585000", "160318.588000", "160318.591000", "160318.594000", "160318.597000", "160358.520000", "160358.523000", "160358.526000", "160358.529000", "160358.532000", "160358.535000", "160358.538000", "160358.541000", "160358.544000", "160358.547000", "160358.550000", "160358.553000", "160358.556000", "160358.559000", "160358.562000", "160358.565000", "160358.568000", "160358.571000", "160358.574000", "160358.577000", "160358.580000", "160358.583000", "160358.586000", "160358.589000", "160358.592000", "160358.595000", "160358.598000", "160438.520000", "160438.523000", "160438.526000", "160438.529000", "160438.532000", "160438.535000", "160438.538000", "160438.541000", "160438.544000", "160438.547000", "160438.550000", "160438.553000", "160438.556000", "160438.559000", "160438.562000", "160438.565000", "160438.568000", "160438.571000", "160438.580000", "160438.583000", "160438.586000", "160438.589000", "160438.592000", "160438.595000", "160438.598000", "160438.601000", "160438.604000", "160518.520000", "160518.523000", "160518.526000", "160518.529000", "160518.532000", "160518.535000", "160518.538000", "160518.541000", "160518.544000", "160518.547000", "160518.550000", "160518.553000", "160518.555000", "160518.566000", "160518.569000", "160518.572000", "160518.575000", "160518.578000", "160518.581000", "160518.584000", "160518.587000", "160518.590000", "160518.601000", "160518.604000", "160518.607000", "160518.610000", "160518.613000", "160558.519000", "160558.522000", "160558.525000", "160558.528000", "160558.531000", "160558.534000", "160558.537000", "160558.540000", "160558.543000", "160558.546000", "160558.549000", "160558.551000", "160558.554000", "160558.558000", "160558.561000", "160558.564000", "160558.567000", "160558.570000", "160558.573000", "160558.576000", "160558.579000", "160558.582000", "160558.585000", "160558.588000", "160558.591000", "160558.594000", "160558.597000", "160638.520000", "160638.523000", "160638.526000", "160638.529000", "160638.532000", "160638.535000", "160638.538000", "160638.541000", "160638.544000", "160638.547000", "160638.550000", "160638.553000", "160638.556000", "160638.559000", "160638.562000", "160638.565000", "160638.568000", "160638.571000", "160638.574000", "160638.577000", "160638.580000", "160638.583000", "160638.586000", "160638.589000", "160638.592000", "160638.595000", "160638.597000", "160718.522000", "160718.525000", "160718.528000", "160718.530000", "160718.534000", "160718.537000", "160718.539000", "160718.542000", "160718.545000", "160718.548000", "160718.551000", "160718.560000", "160718.563000", "160718.566000", "160718.569000", "160718.572000", "160718.575000", "160718.578000", "160718.581000", "160718.584000", "160718.587000", "160718.590000", "160718.593000", "160718.595000", "160718.598000", "160718.601000", "160758.520000", "160758.523000", "160758.526000", "160758.529000", "160758.532000", "160758.535000", "160758.538000", "160758.541000", "160758.544000", "160758.547000", "160758.550000", "160758.553000", "160758.556000", "160758.559000", "160758.562000", "160758.565000", "160758.568000", "160758.571000", "160758.574000", "160758.577000", "160758.580000", "160758.583000", "160758.586000", "160758.588000", "160758.597000", "160758.600000", "160758.603000", "160838.520000", "160838.523000", "160838.526000", "160838.529000", "160838.532000", "160838.535000", "160838.538000", "160838.541000", "160838.544000", "160838.547000", "160838.550000", "160838.553000", "160838.556000", "160838.559000", "160838.562000", "160838.565000", "160838.568000", "160838.571000", "160838.574000", "160838.577000", "160838.580000", "160838.582000", "160838.586000", "160838.589000", "160838.592000", "160838.595000", "160838.597000", "160914.127000", "160914.130000", "160914.133000", "160914.136000", "160914.139000", "160914.142000", "160914.145000", "160914.148000", "160914.151000", "160914.154000", "160914.157000", "160914.160000", "160914.163000", "160914.166000", "160914.169000", "160914.172000", "160914.175000", "160914.178000", "160914.181000", "160914.184000", "160914.187000", "160914.190000", "160914.197000", "160914.200000"],
