{
  "AcquisitionMatrixPE": 104,
  "AcquisitionNumber": 1,
  "AcquisitionTime": "15:44:46.970000",
  "BandwidthPerPixelPhaseEncode": 17.17,
  "BaseResolution": 104,
  "BodyPartExamined": "BRAIN",
  "CoilString": "HC1-7;NC1_2",
  "ConsistencyInfo": "N4_VE11C_LATEST_20160120",
  "ConversionSoftware": "dcm2niix",
  "ConversionSoftwareVersion": "v1.0.20190902",
  "DerivedVendorReportedEchoSpacing": 0.000560011,
  "DeviceSerialNumber": "167006",
  "DwellTime": 2.1e-06,
  "EchoTime": 0.037,
  "EchoTrainLength": 104,
  "EffectiveEchoSpacing": 0.000560011,
  "FlipAngle": 52,
  "ImageComments": "Unaliased_MB4_PE3_LB",
  "ImageOrientationPatientDICOM": [0.999664, -0.0231511, 0.011643, 0.025828, 0.926685, -0.37495],
  "ImageType": [
    "ORIGINAL",
    "PRIMARY",
    "M",
    "MB",
    "ND",
    "MOSAIC"
],
  "ImagingFrequency": 123.259,
  "InPlanePhaseEncodingDirectionDICOM": "COL",
  "InstitutionAddress": "Chemin_Queen-Mary_4565_Montreal_District_CA_H3W_1W5",
  "InstitutionName": "IUGM",
  "InstitutionalDepartmentName": "Department",
  "MRAcquisitionType": "2D",
  "MagneticFieldStrength": 3,
  "Manufacturer": "Siemens",
  "ManufacturersModelName": "Prisma_fit",
  "Modality": "MR",
  "MultibandAccelerationFactor": 4,
  "PartialFourier": 1,
  "PatientPosition": "HFS",
  "PercentPhaseFOV": 100,
  "PhaseEncodingDirection": "j",
  "PhaseEncodingSteps": 104,
  "PhaseResolution": 1,
  "PixelBandwidth": 2290,
  "ProcedureStepDescription": "games_shinobi",
  "ProtocolName": "func_task-shinobi_run-2",
  "PulseSequenceDetails": "%CustomerSeq%_cmrr_mbep2d_bold",
  "ReceiveCoilActiveElements": "HC1-7;NC1,2",
  "ReceiveCoilName": "HeadNeck_64",
  "ReconMatrixPE": 104,
  "RepetitionTime": 1.49,
  "SAR": 0.02882,
  "ScanOptions": "FS",
  "ScanningSequence": "EP",
  "SequenceName": "epfid2d1_104",
  "SequenceVariant": "SK_SS",
  "SeriesDescription": "func_task-shinobi_run-2",
  "SeriesNumber": 11,
  "ShimSetting": [637, -7254, -8833, 583, 19, -210, -86, -6],
  "SliceThickness": 2,
  "SliceTiming": [0, 0.785, 0.1, 0.8825, 0.1975, 0.98, 0.295, 1.08, 0.3925, 1.1775, 0.49, 1.275, 0.59, 1.3725, 0.6875, 0, 0.785, 0.1, 0.8825, 0.1975, 0.98, 0.295, 1.08, 0.3925, 1.1775, 0.49, 1.275, 0.59, 1.3725, 0.6875, 0, 0.785, 0.1, 0.8825, 0.1975, 0.98, 0.295, 1.08, 0.3925, 1.1775, 0.49, 1.275, 0.59, 1.3725, 0.6875, 0, 0.785, 0.1, 0.8825, 0.1975, 0.98, 0.295, 1.08, 0.3925, 1.1775, 0.49, 1.275, 0.59, 1.3725, 0.6875],
  "SoftwareVersions": "syngo_MR_E11",
  "SpacingBetweenSlices": 2,
  "StationName": "MRC35049",
  "TaskName": "shinobi",
  "TotalReadoutTime": 0.0576811,
  "TxRefAmp": 215.713,
  "WipMemBlock": "afe97c9f-2ed2-4aed-a926-b0f55ae52a98||Sequence: R016 ve11c/master r/e634e98; Dec 19 2017 11:00:25 by eja",
  "dcmmeta_affine": [
    [-1.999328374862671, 0.05165592208504677, 0.004217690322548151, 103.6182632446289],
    [0.04630215838551521, 1.8533700704574585, -0.7502501606941223, -64.71329498291016],
    [0.02328590303659439, 0.7499005794525146, 1.8539435863494873, -68.04048156738281],
    [0.0, 0.0, 0.0, 1.0]
],
  "dcmmeta_reorient_transform": [
    [0.0, -1.0, 0.0, 103.0],
    [1.0, 0.0, 0.0, 0.0],
    [0.0, 0.0, 1.0, 0.0],
    [0.0, 0.0, 0.0, 1.0]
],
  "dcmmeta_shape": [104, 104, 60, 534],
  "dcmmeta_slice_dim": 2,
  "dcmmeta_version": 0.6,
  "global": {
    "const": {
      "AcquisitionMatrix": [104, 0, 0, 104],
      "AngioFlag": "N",
      "BitsAllocated": 16,
      "BitsStored": 16,
      "BodyPartExamined": "BRAIN",
      "Columns": 832,
      "EchoNumbers": 1,
      "EchoTime": 37.0,
      "EchoTrainLength": 104,
      "FlipAngle": 52.0,
      "HighBit": 15,
      "ImageOrientationPatient": [0.99966417820352, -0.023151079758, 0.01164295163318, 0.02582796136767, 0.92668505799087, -0.3749502896492],
      "ImagePositionPatient": [-855.49709974115, -783.95656322475, 273.68702276476],
      "ImageType": [
        "ORIGINAL",
        "PRIMARY",
        "M",
        "MB",
        "ND",
        "MOSAIC"
],
      "ImagedNucleus": "1H",
      "ImagingFrequency": 123.258978,
      "InPlanePhaseEncodingDirection": "COL",
      "MRAcquisitionType": "2D",
      "MagneticFieldStrength": 3.0,
      "Manufacturer": "SIEMENS",
      "ManufacturerModelName": "Prisma_fit",
      "Modality": "MR",
      "NumberOfAverages": 1.0,
      "NumberOfPhaseEncodingSteps": 104,
      "PercentPhaseFieldOfView": 100.0,
      "PercentSampling": 100.0,
      "PerformedProcedureStepStartTime": "152008.056000",
      "PhotometricInterpretation": "MONOCHROME2",
      "PixelBandwidth": 2290.0,
      "PixelRepresentation": 0,
      "PixelSpacing": [2.0, 2.0],
      "ProtocolName": "func_task-shinobi_run-2",
      "RepetitionTime": 1490.0,
      "Rows": 832,
      "SAR": 0.02882002377215,
      "SamplesPerPixel": 1,
      "ScanOptions": "FS",
      "ScanningSequence": "EP",
      "SequenceName": "epfid2d1_104",
      "SequenceVariant": [
        "SK",
        "SS"
],
      "SeriesDescription": "func_task-shinobi_run-2",
      "SeriesNumber": 11,
      "SeriesTime": "154621.050000",
      "SliceLocation": -38.577510176019,
      "SliceThickness": 2.0,
      "SmallestImagePixelValue": 0,
      "SoftwareVersions": "syngo MR E11",
      "SpacingBetweenSlices": 1.9999999903243,
      "SpecificCharacterSet": "ISO_IR 100",
      "StudyID": "1",
      "StudyTime": "152007.949000",
      "TransmitCoilName": "Body",
      "VariableFlipAngleFlag": "N",
      "WindowCenterWidthExplanation": "Algo1",
      "dBdt": 0.0},
    "slices": {}
  },
  "time": {
    "samples": {
      "AcquisitionNumber": [1, 2, 3, 4, 5, 6, 7, 8, 9, 10, 11, 12, 13, 14, 15, 16, 17, 18, 19, 20, 21, 22, 23, 24, 25, 26, 27, 28, 29, 30, 31, 32, 33, 34, 35, 36, 37, 38, 39, 40, 41, 42, 43, 44, 45, 46, 47, 48, 49, 50, 51, 52, 53, 54, 55, 56, 57, 58, 59, 60, 61, 62, 63, 64, 65, 66, 67, 68, 69, 70, 71, 72, 73, 74, 75, 76, 77, 78, 79, 80, 81, 82, 83, 84, 85, 86, 87, 88, 89, 90, 91, 92, 93, 94, 95, 96, 97, 98, 99, 100, 101, 102, 103, 104, 105, 106, 107, 108, 109, 110, 111, 112, 113, 114, 115, 116, 117, 118, 119, 120, 121, 122, 123, 124, 125, 126, 127, 128, 129, 130, 131, 132, 133, 134, 135, 136, 137, 138, 139, 140, 141, 142, 143, 144, 145, 146, 147, 148, 149, 150, 151, 152, 153, 154, 155, 156, 157, 158, 159, 160, 161, 162, 163, 164, 165, 166, 167, 168, 169, 170, 171, 172, 173, 174, 175, 176, 177, 178, 179, 180, 181, 182, 183, 184, 185, 186, 187, 188, 189, 190, 191, 192, 193, 194, 195, 196, 197, 198, 199, 200, 201, 202, 203, 204, 205, 206, 207, 208, 209, 210, 211, 212, 213, 214, 215, 216, 217, 218, 219, 220, 221, 222, 223, 224, 225, 226, 227, 228, 229, 230, 231, 232, 233, 234, 235, 236, 237, 238, 239, 240, 241, 242, 243, 244, 245, 246, 247, 248, 249, 250, 251, 252, 253, 254, 255, 256, 257, 258, 259, 260, 261, 262, 263, 264, 265, 266, 267, 268, 269, 270, 271, 272, 273, 274, 275, 276, 277, 278, 279, 280, 281, 282, 283, 284, 285, 286, 287, 288, 289, 290, 291, 292, 293, 294, 295, 296, 297, 298, 299, 300, 301, 302, 303, 304, 305, 306, 307, 308, 309, 310, 311, 312, 313, 314, 315, 316, 317, 318, 319, 320, 321, 322, 323, 324, 325, 326, 327, 328, 329, 330, 331, 332, 333, 334, 335, 336, 337, 338, 339, 340, 341, 342, 343, 344, 345, 346, 347, 348, 349, 350, 351, 352, 353, 354, 355, 356, 357, 358, 359, 360, 361, 362, 363, 364, 365, 366, 367, 368, 369, 370, 371, 372, 373, 374, 375, 376, 377, 378, 379, 380, 381, 382, 383, 384, 385, 386, 387, 388, 389, 390, 391, 392, 393, 394, 395, 396, 397, 398, 399, 400, 401, 402, 403, 404, 405, 406, 407, 408, 409, 410, 411, 412, 413, 414, 415, 416, 417, 418, 419, 420, 421, 422, 423, 424, 425, 426, 427, 428, 429, 430, 431, 432, 433, 434, 435, 436, 437, 438, 439, 440, 441, 442, 443, 444, 445, 446, 447, 448, 449, 450, 451, 452, 453, 454, 455, 456, 457, 458, 459, 460, 461, 462, 463, 464, 465, 466, 467, 468, 469, 470, 471, 472, 473, 474, 475, 476, 477, 478, 479, 480, 481, 482, 483, 484, 485, 486, 487, 488, 489, 490, 491, 492, 493, 494, 495, 496, 497, 498, 499, 500, 501, 502, 503, 504, 505, 506, 507, 508, 509, 510, 511, 512, 513, 514, 515, 516, 517, 518, 519, 520, 521, 522, 523, 524, 525, 526, 527, 528, 529, 530, 531, 532, 533, 534],
      "AcquisitionTime": ["154446.970000", "154448.460000", "154449.950000", "154451.440000", "154452.930000", "154454.420000", "154455.910000", "154457.400000", "154458.890000", "154500.380000", "154501.870000", "154503.360000", "154504.850000", "154506.340000", "154507.830000", "154509.320000", "154510.810000", "154512.300000", "154513.790000", "154515.280000", "154516.770000", "154518.260000", "154519.750000", "154521.240000", "154522.730000", "154524.220000", "154525.710000", "154527.200000", "154528.690000", "154530.180000", "154531.670000", "154533.160000", "154534.650000", "154536.140000", "154537.630000", "154539.120000", "154540.610000", "154542.100000", "154543.590000", "154545.080000", "154546.570000", "154548.060000", "154549.550000", "154551.040000", "154552.530000", "154554.020000", "154555.510000", "154557.000000", "154558.490000", "154559.980000", "154601.470000", "154602.960000", "154604.450000", "154605.940000", "154607.430000", "154608.920000", "154610.410000", "154611.900000", "154613.390000", "154614.880000", "154616.370000", "154617.860000", "154619.350000", "154620.840000", "154622.330000", "154623.820000", "154625.310000", "154626.800000", "154628.290000", "154629.780000", "154631.270000", "154632.760000", "154634.250000", "154635.740000", "154637.230000", "154638.720000", "154640.210000", "154641.700000", "154643.190000", "154644.680000", "154646.170000", "154647.660000", "154649.150000", "154650.640000", "154652.130000", "154653.620000", "154655.110000", "154656.600000", "154658.090000", "154659.580000", "154701.070000", "154702.560000", "154704.050000", "154705.540000", "154707.030000", "154708.520000", "154710.010000", "154711.500000", "154712.990000", "154714.480000", "154715.970000", "154717.460000", "154718.950000", "154720.440000", "154721.930000", "154723.420000", "154724.910000", "154726.400000", "154727.890000", "154729.380000", "154730.870000", "154732.360000", "154733.850000", "154735.340000", "154736.830000", "154738.320000", "154739.810000", "154741.300000", "154742.790000", "154744.280000", "154745.770000", "154747.260000", "154748.750000", "154750.240000", "154751.730000", "154753.220000", "154754.710000", "154756.200000", "154757.690000", "154759.180000", "154800.670000", "154802.160000", "154803.650000", "154805.140000", "154806.630000", "154808.120000", "154809.610000", "154811.100000", "154812.590000", "154814.080000", "154815.570000", "154817.060000", "154818.550000", "154820.040000", "154821.530000", "154823.020000", "154824.510000", "154826.000000", "154827.490000", "154828.980000", "154830.470000", "154831.960000", "154833.450000", "154834.940000", "154836.430000", "154837.920000", "154839.410000", "154840.900000", "154842.390000", "154843.880000", "154845.370000", "154846.860000", "154848.350000", "154849.840000", "154851.330000", "154852.820000", "154854.310000", "154855.800000", "154857.290000", "154858.780000", "154900.270000", "154901.760000", "154903.250000", "154904.740000", "154906.230000", "154907.720000", "154909.210000", "154910.700000", "154912.190000", "154913.680000", "154915.170000", "154916.660000", "154918.150000", "154919.640000", "154921.130000", "154922.620000", "154924.110000", "154925.600000", "154927.090000", "154928.580000", "154930.070000", "154931.560000", "154933.050000", "154934.540000", "154936.030000", "154937.520000", "154939.010000", "154940.500000", "154941.990000", "154943.480000", "154944.970000", "154946.460000", "154947.950000", "154949.440000", "154950.930000", "154952.420000", "154953.910000", "154955.400000", "154956.890000", "154958.380000", "154959.870000", "155001.360000", "155002.850000", "155004.340000", "155005.830000", "155007.320000", "155008.810000", "155010.300000", "155011.790000", "155013.280000", "155014.770000", "155016.260000", "155017.750000", "155019.240000", "155020.730000", "155022.220000", "155023.710000", "155025.200000", "155026.690000", "155028.180000", "155029.670000", "155031.160000", "155032.650000", "155034.140000", "155035.630000", "155037.120000", "155038.610000", "155040.100000", "155041.590000", "155043.080000", "155044.570000", "155046.060000", "155047.550000", "155049.040000", "155050.530000", "155052.020000", "155053.510000", "155055.000000", "155056.490000", "155057.980000", "155059.470000", "155100.960000", "155102.450000", "155103.940000", "155105.430000", "155106.920000", "155108.410000", "155109.900000", "155111.390000", "155112.880000", "155114.370000", "155115.860000", "155117.350000", "155118.840000", "155120.330000", "155121.820000", "155123.310000", "155124.800000", "155126.290000", "155127.780000", "155129.270000", "155130.760000", "155132.250000", "155133.740000", "155135.230000", "155136.720000", "155138.210000", "155139.700000", "155141.190000", "155142.680000", "155144.170000", "155145.660000", "155147.150000", "155148.640000", "155150.130000", "155151.620000", "155153.110000", "155154.600000", "155156.090000", "155157.580000", "155159.070000", "155200.560000", "155202.050000", "155203.540000", "155205.030000", "155206.520000", "155208.010000", "155209.500000", "155210.990000", "155212.480000", "155213.970000", "155215.460000", "155216.950000", "155218.440000", "155219.930000", "155221.420000", "155222.910000", "155224.400000", "155225.890000", "155227.380000", "155228.870000", "155230.360000", "155231.850000", "155233.340000", "155234.830000", "155236.320000", "155237.810000", "155239.300000", "155240.790000", "155242.280000", "155243.770000", "155245.260000", "155246.750000", "155248.240000", "155249.730000", "155251.220000", "155252.710000", "155254.200000", "155255.690000", "155257.180000", "155258.670000", "155300.160000", "155301.650000", "155303.140000", "155304.630000", "155306.120000", "155307.610000", "155309.100000", "155310.590000", "155312.080000", "155313.570000", "155315.060000", "155316.550000", "155318.040000", "155319.530000", "155321.020000", "155322.510000", "155324.000000", "155325.490000", "155326.980000", "155328.470000", "155329.960000", "155331.450000", "155332.940000", "155334.430000", "155335.920000", "155337.410000", "155338.900000", "155340.390000", "155341.880000", "155343.370000", "155344.860000", "155346.350000", "155347.840000", "155349.330000", "155350.820000", "155352.310000", "155353.800000", "155355.290000", "155356.780000", "155358.270000", "155359.760000", "155401.250000", "155402.740000", "155404.230000", "155405.720000", "155407.210000", "155408.700000", "155410.190000", "155411.680000", "155413.170000", "155414.660000", "155416.150000", "155417.640000", "155419.130000", "155420.620000", "155422.110000", "155423.600000", "155425.090000", "155426.580000", "155428.070000", "155429.560000", "155431.050000", "155432.540000", "155434.030000", "155435.520000", "155437.010000", "155438.500000", "155439.990000", "155441.480000", "155442.970000", "155444.460000", "155445.950000", "155447.440000", "155448.930000", "155450.420000", "155451.910000", "155453.400000", "155454.890000", "155456.380000", "155457.870000", "155459.360000", "155500.850000", "155502.340000", "155503.830000", "155505.320000", "155506.810000", "155508.300000", "155509.790000", "155511.280000", "155512.770000", "155514.260000", "155515.750000", "155517.240000", "155518.730000", "155520.220000", "155521.710000", "155523.200000", "155524.690000", "155526.180000", "155527.670000", "155529.160000", "155530.650000", "155532.140000", "155533.630000", "155535.120000", "155536.610000", "155538.100000", "155539.590000", "155541.080000", "155542.570000", "155544.060000", "155545.550000", "155547.040000", "155548.530000", "155550.020000", "155551.510000", "155553.000000", "155554.490000", "155555.980000", "155557.470000", "155558.960000", "155600.450000", "155601.940000", "155603.430000", "155604.920000", "155606.410000", "155607.900000", "155609.390000", "155610.880000", "155612.370000", "155613.860000", "155615.350000", "155616.840000", "155618.330000", "155619.820000", "155621.310000", "155622.800000", "155624.290000", "155625.780000", "155627.270000", "155628.760000", "155630.250000", "155631.740000", "155633.230000", "155634.720000", "155636.210000", "155637.700000", "155639.190000", "155640.680000", "155642.170000", "155643.660000", "155645.150000", "155646.640000", "155648.130000", "155649.620000", "155651.110000", "155652.600000", "155654.090000", "155655.580000", "155657.070000", "155658.560000", "155700.050000", "155701.540000", "155703.030000", "155704.520000", "155706.010000", "155707.500000", "155708.990000", "155710.480000", "155711.970000", "155713.460000", "155714.950000", "155716.440000", "155717.930000", "155719.420000", "155720.910000", "155722.400000", "155723.890000", "155725.380000", "155726.870000", "155728.360000", "155729.850000", "155731.340000", "155732.830000", "155734.320000", "155735.810000", "155737.300000", "155738.790000", "155740.280000", "155741.770000", "155743.260000", "155744.750000", "155746.240000", "155747.730000", "155749.220000", "155750.710000", "155752.200000", "155753.690000", "155755.180000", "155756.670000", "155758.160000", "155759.650000", "155801.140000"],
      "ContentTime": ["154621.052000", "154621.056000", "154621.059000", "154621.062000", "154621.065000", "154621.068000", "154621.071000", "154621.074000", "154621.077000", "154621.080000", "154621.083000", "154621.086000", "154621.089000", "154621.092000", "154621.095000", "154621.097000", "154621.100000", "154621.103000", "154621.106000", "154621.109000", "154621.112000", "154621.115000", "154621.118000", "154621.121000", "154621.124000", "154621.127000", "154621.130000", "154621.133000", "154621.136000", "154621.144000", "154621.147000", "154621.150000", "154621.153000", "154621.156000", "154621.159000", "154621.162000", "154621.165000", "154621.168000", "154621.171000", "154621.174000", "154641.017000", "154641.020000", "154641.023000", "154641.026000", "154641.029000", "154641.032000", "154641.035000", "154641.038000", "154641.041000", "154641.043000", "154641.046000", "154641.049000", "154641.068000", "154641.071000", "154641.074000", "154641.077000", "154641.080000", "154641.083000", "154641.086000", "154641.089000", "154701.017000", "154701.020000", "154701.023000", "154701.026000", "154701.029000", "154701.032000", "154701.035000", "154701.038000", "154701.041000", "154701.043000", "154701.046000", "154701.049000", "154701.052000", "154701.055000", "154701.058000", "154701.061000", "154701.064000", "154701.067000", "154701.070000", "154701.072000", "154721.018000", "154721.021000", "154721.024000", "154721.036000", "154721.039000", "154721.042000", "154721.045000", "154721.048000", "154721.051000", "154721.054000", "154721.057000", "154721.060000", "154721.063000", "154721.066000", "154721.069000", "154721.072000", "154721.075000", "154721.077000", "154721.080000", "154721.083000", "154801.018000", "154801.021000", "154801.024000", "154801.027000", "154801.037000", "154801.040000", "154801.043000", "154801.046000", "154801.049000", "154801.052000", "154801.055000", "154801.057000", "154801.060000", "154801.063000", "154801.066000", "154801.069000", "154801.072000", "154801.075000", "154801.078000", "154801.081000", "154801.084000", "154801.087000", "154801.090000", "154801.092000", "154801.095000", "154801.098000", "154801.101000", "154801.104000", "154801.107000", "154801.110000", "154841.018000", "154841.021000", "154841.024000", "154841.027000", "154841.030000", "154841.033000", "154841.036000", "154841.039000", "154841.042000", "154841.045000", "154841.048000", "154841.051000", "154841.054000", "154841.056000", "154841.059000", "154841.062000", "154841.065000", "154841.068000", "154841.072000", "154841.075000", "154841.078000", "154841.081000", "154841.084000", "154841.087000", "154841.090000", "154841.093000", "154921.017000", "154921.020000", "154921.023000", "154921.026000", "154921.029000", "154921.032000", "154921.035000", "154921.038000", "154921.041000", "154921.044000", "154921.047000", "154921.050000", "154921.053000", "154921.055000", "154921.059000", "154921.061000", "154921.064000", "154921.067000", "154921.070000", "154921.073000", "154921.076000", "154921.079000", "154921.082000", "154921.085000", "154921.088000", "154921.091000", "154921.094000", "155001.018000", "155001.021000", "155001.024000", "155001.027000", "155001.030000", "155001.033000", "155001.036000", "155001.039000", "155001.042000", "155001.045000", "155001.048000", "155001.051000", "155001.054000", "155001.057000", "155001.060000", "155001.063000", "155001.066000", "155001.069000", "155001.072000", "155001.075000", "155001.078000", "155001.081000", "155001.084000", "155001.086000", "155001.089000", "155001.092000", "155001.095000", "155041.018000", "155041.021000", "155041.024000", "155041.027000", "155041.030000", "155041.033000", "155041.036000", "155041.039000", "155041.042000", "155041.045000", "155041.048000", "155041.051000", "155041.054000", "155041.057000", "155041.060000", "155041.062000", "155041.065000", "155041.068000", "155041.071000", "155041.074000", "155041.077000", "155041.080000", "155041.083000", "155041.086000", "155041.089000", "155041.092000", "155041.095000", "155121.017000", "155121.020000", "155121.023000", "155121.026000", "155121.029000", "155121.032000", "155121.035000", "155121.038000", "155121.041000", "155121.044000", "155121.047000", "155121.050000", "155121.053000", "155121.055000", "155121.058000", "155121.061000", "155121.064000", "155121.079000", "155121.082000", "155121.085000", "155121.088000", "155121.091000", "155121.094000", "155121.097000", "155121.100000", "155121.103000", "155121.105000", "155201.018000", "155201.021000", "155201.024000", "155201.027000", "155201.030000", "155201.033000", "155201.036000", "155201.039000", "155201.042000", "155201.045000", "155201.048000", "155201.051000", "155201.054000", "155201.057000", "155201.060000", "155201.063000", "155201.065000", "155201.068000", "155201.071000", "155201.074000", "155201.077000", "155201.080000", "155201.083000", "155201.086000", "155201.089000", "155201.092000", "155201.095000", "155241.018000", "155241.021000", "155241.024000", "155241.027000", "155241.030000", "155241.033000", "155241.036000", "155241.046000", "155241.049000", "155241.052000", "155241.055000", "155241.058000", "155241.061000", "155241.064000", "155241.067000", "155241.070000", "155241.073000", "155241.076000", "155241.079000", "155241.082000", "155241.085000", "155241.089000", "155241.092000", "155241.095000", "155241.098000", "155241.101000", "155321.018000", "155321.021000", "155321.024000", "155321.027000", "155321.030000", "155321.033000", "155321.036000", "155321.039000", "155321.042000", "155321.045000", "155321.048000", "155321.051000", "155321.054000", "155321.057000", "155321.060000", "155321.063000", "155321.066000", "155321.069000", "155321.072000", "155321.075000", "155321.078000", "155321.080000", "155321.083000", "155321.086000", "155321.089000", "155321.092000", "155321.095000", "155401.017000", "155401.020000", "155401.023000", "155401.026000", "155401.029000", "155401.032000", "155401.035000", "155401.038000", "155401.041000", "155401.044000", "155401.047000", "155401.050000", "155401.053000", "155401.056000", "155401.059000", "155401.062000", "155401.065000", "155401.068000", "155401.071000", "155401.074000", "155401.077000", "155401.080000", "155401.083000", "155401.086000", "155401.088000", "155401.091000", "155401.094000", "155441.018000", "155441.021000", "155441.024000", "155441.027000", "155441.030000", "155441.033000", "155441.036000", "155441.039000", "155441.042000", "155441.045000", "155441.048000", "155441.051000", "155441.054000", "155441.057000", "155441.060000", "155441.063000", "155441.066000", "155441.069000", "155441.072000", "155441.075000", "155441.078000", "155441.081000", "155441.084000", "155441.086000", "155441.089000", "155441.092000", "155441.095000", "155521.018000", "155521.021000", "155521.024000", "155521.027000", "155521.030000", "155521.033000", "155521.036000", "155521.039000", "155521.042000", "155521.045000", "155521.048000", "155521.051000", "155521.054000", "155521.057000", "155521.060000", "155521.063000", "155521.066000", "155521.069000", "155521.071000", "155521.074000", "155521.077000", "155521.080000", "155521.083000", "155521.086000", "155521.089000", "155521.092000", "155521.095000", "155601.017000", "155601.020000", "155601.023000", "155601.026000", "155601.034000", "155601.037000", "155601.040000", "155601.043000", "155601.046000", "155601.049000", "155601.052000", "155601.055000", "155601.058000", "155601.061000", "155601.064000", "155601.067000", "155601.070000", "155601.073000", "155601.076000", "155601.079000", "155601.082000", "155601.085000", "155601.088000", "155601.091000", "155601.094000", "155601.096000", "155601.099000", "155641.018000", "155641.021000", "155641.024000", "155641.027000", "155641.030000", "155641.033000", "155641.036000", "155641.039000", "155641.042000", "155641.045000", "155641.048000", "155641.051000", "155641.054000", "155641.057000", "155641.060000", "155641.063000", "155641.066000", "155641.069000", "155641.072000", "155641.075000", "155641.078000", "155641.080000", "155641.083000", "155641.086000", "155641.089000", "155641.092000", "155641.095000", "155721.018000", "155721.021000", "155721.024000", "155721.027000", "155721.030000", "155721.033000", "155721.036000", "155721.039000", "155721.042000", "155721.045000", "155721.048000", "155721.051000", "155721.054000", "155721.057000", "155721.060000", "155721.063000", "155721.066000", "155721.069000", "155721.072000", "155721.076000", "155721.079000", "155721.082000", "155721.085000", "155721.088000", "155721.091000", "155721.094000", "155801.018000", "155801.021000", "155801.024000", "155801.027000", "155801.030000", "155801.033000", "155801.036000", "155801.039000", "155801.042000", "155801.045000", "155801.048000", "155801.051000", "155801.054000", "155801.057000", "155801.060000", "155801.063000", "155801.066000", "155801.069000", "155801.072000", "155801.075000", "155801.078000", "155801.081000", "155801.084000", "155801.087000", "155801.090000", "155801.092000", "155801.095000", "155803.053000", "155803.056000"],
