{
  "AcquisitionMatrixPE": 104,
  "AcquisitionNumber": 1,
  "AcquisitionTime": "11:26:39.307500",
  "BandwidthPerPixelPhaseEncode": 17.17,
  "BaseResolution": 104,
  "BodyPartExamined": "BRAIN",
  "CoilString": "HC1-7;NC1_2",
  "ConsistencyInfo": "N4_VE11C_LATEST_20160120",
  "ConversionSoftware": "dcm2niix",
  "ConversionSoftwareVersion": "v1.0.20190902",
  "DerivedVendorReportedEchoSpacing": 0.000560011,
  "DeviceSerialNumber": "167006",
  "DwellTime": 2.1e-06,
  "EchoTime": 0.037,
  "EchoTrainLength": 104,
  "EffectiveEchoSpacing": 0.000560011,
  "FlipAngle": 52,
  "ImageComments": "Unaliased_MB4_PE3_LB",
  "ImageOrientationPatientDICOM": [0.993068, 0.103404, 0.0558928, -0.0863583, 0.964424, -0.249859],
  "ImageType": [
    "ORIGINAL",
    "PRIMARY",
    "M",
    "MB",
    "ND",
    "MOSAIC"
],
  "ImagingFrequency": 123.259,
  "InPlanePhaseEncodingDirectionDICOM": "COL",
  "InstitutionAddress": "Chemin_Queen-Mary_4565_Montreal_District_CA_H3W_1W5",
  "InstitutionName": "IUGM",
  "InstitutionalDepartmentName": "Department",
  "MRAcquisitionType": "2D",
  "MagneticFieldStrength": 3,
  "Manufacturer": "Siemens",
  "ManufacturersModelName": "Prisma_fit",
  "Modality": "MR",
  "MultibandAccelerationFactor": 4,
  "PartialFourier": 1,
  "PatientPosition": "HFS",
  "PercentPhaseFOV": 100,
  "PhaseEncodingDirection": "j",
  "PhaseEncodingSteps": 104,
  "PhaseResolution": 1,
  "PixelBandwidth": 2290,
  "ProcedureStepDescription": "games_shinobi",
  "ProtocolName": "func_task-shinobi_run-3",
  "PulseSequenceDetails": "%CustomerSeq%_cmrr_mbep2d_bold",
  "ReceiveCoilActiveElements": "HC1-7;NC1,2",
  "ReceiveCoilName": "HeadNeck_64",
  "ReconMatrixPE": 104,
  "RepetitionTime": 1.49,
  "SAR": 0.0397107,
  "ScanOptions": "FS",
  "ScanningSequence": "EP",
  "SequenceName": "epfid2d1_104",
  "SequenceVariant": "SK_SS",
  "SeriesDescription": "func_task-shinobi_run-3",
  "SeriesNumber": 13,
  "ShimSetting": [630, -7229, -8832, 653, 76, -89, 111, -17],
  "SliceThickness": 2,
  "SliceTiming": [0, 0.785, 0.0975, 0.8825, 0.1975, 0.98, 0.295, 1.0775, 0.3925, 1.1775, 0.49, 1.275, 0.5875, 1.3725, 0.6875, 0, 0.785, 0.0975, 0.8825, 0.1975, 0.98, 0.295, 1.0775, 0.3925, 1.1775, 0.49, 1.275, 0.5875, 1.3725, 0.6875, 0, 0.785, 0.0975, 0.8825, 0.1975, 0.98, 0.295, 1.0775, 0.3925, 1.1775, 0.49, 1.275, 0.5875, 1.3725, 0.6875, 0, 0.785, 0.0975, 0.8825, 0.1975, 0.98, 0.295, 1.0775, 0.3925, 1.1775, 0.49, 1.275, 0.5875, 1.3725, 0.6875],
  "SoftwareVersions": "syngo_MR_E11",
  "SpacingBetweenSlices": 2,
  "StationName": "MRC35049",
  "TaskName": "shinobi",
  "TotalReadoutTime": 0.0576811,
  "TxRefAmp": 247.307,
  "WipMemBlock": "0157b927-e964-4600-a98e-86f2a4aee2ef||Sequence: R016 ve11c/master r/e634e98; Dec 19 2017 11:00:25 by eja",
  "dcmmeta_affine": [
    [-1.9861356019973755, -0.17271657288074493, 0.15948137640953064, 110.00267791748047],
    [-0.20680737495422363, 1.928847074508667, -0.48660001158714294, -54.78586959838867],
    [0.1117856577038765, 0.4997177720069885, 1.9333354234695435, -53.75166320800781],
    [0.0, 0.0, 0.0, 1.0]
],
  "dcmmeta_reorient_transform": [
    [0.0, -1.0, 0.0, 103.0],
    [1.0, 0.0, 0.0, 0.0],
    [0.0, 0.0, 1.0, 0.0],
    [0.0, 0.0, 0.0, 1.0]
],
  "dcmmeta_shape": [104, 104, 60, 420],
  "dcmmeta_slice_dim": 2,
  "dcmmeta_version": 0.6,
  "global": {
    "const": {
      "AcquisitionMatrix": [104, 0, 0, 104],
      "AngioFlag": "N",
      "BitsAllocated": 16,
      "BitsStored": 16,
      "BodyPartExamined": "BRAIN",
      "Columns": 832,
      "EchoNumbers": 1,
      "EchoTime": 37.0,
      "EchoTrainLength": 104,
      "FlipAngle": 52.0,
      "HighBit": 15,
      "ImageOrientationPatient": [0.99306780676695, 0.10340368973373, 0.0558928270221, -0.086358285862, 0.96442354833548, -0.249858891935],
      "ImagePositionPatient": [-752.29739931764, -921.26361049277, 138.92656280622],
      "ImageType": [
        "ORIGINAL",
        "PRIMARY",
        "M",
        "MB",
        "ND",
        "MOSAIC"
],
      "ImagedNucleus": "1H",
      "ImagingFrequency": 123.259092,
      "InPlanePhaseEncodingDirection": "COL",
      "MRAcquisitionType": "2D",
      "MagneticFieldStrength": 3.0,
      "Manufacturer": "SIEMENS",
      "ManufacturerModelName": "Prisma_fit",
      "Modality": "MR",
      "NumberOfAverages": 1.0,
      "NumberOfPhaseEncodingSteps": 104,
      "PercentPhaseFieldOfView": 100.0,
      "PercentSampling": 100.0,
      "PerformedProcedureStepStartTime": "105614.853000",
      "PhotometricInterpretation": "MONOCHROME2",
      "PixelBandwidth": 2290.0,
      "PixelRepresentation": 0,
      "PixelSpacing": [2.0, 2.0],
      "ProtocolName": "func_task-shinobi_run-3",
      "RepetitionTime": 1490.0,
      "Rows": 832,
      "SAR": 0.03971069028154,
      "SamplesPerPixel": 1,
      "ScanOptions": "FS",
      "ScanningSequence": "EP",
      "SequenceName": "epfid2d1_104",
      "SequenceVariant": [
        "SK",
        "SS"
],
      "SeriesDescription": "func_task-shinobi_run-3",
      "SeriesNumber": 13,
      "SeriesTime": "112802.894000",
      "SliceLocation": -29.85890789383,
      "SliceThickness": 2.0,
      "SmallestImagePixelValue": 0,
      "SoftwareVersions": "syngo MR E11",
      "SpacingBetweenSlices": 1.9999999277735,
      "SpecificCharacterSet": "ISO_IR 100",
      "StudyID": "1",
      "StudyTime": "105614.792000",
      "TransmitCoilName": "Body",
      "VariableFlipAngleFlag": "N",
      "WindowCenterWidthExplanation": "Algo1",
      "dBdt": 0.0},
    "slices": {}
  },
  "time": {
    "samples": {
      "AcquisitionNumber": [1, 2, 3, 4, 5, 6, 7, 8, 9, 10, 11, 12, 13, 14, 15, 16, 17, 18, 19, 20, 21, 22, 23, 24, 25, 26, 27, 28, 29, 30, 31, 32, 33, 34, 35, 36, 37, 38, 39, 40, 41, 42, 43, 44, 45, 46, 47, 48, 49, 50, 51, 52, 53, 54, 55, 56, 57, 58, 59, 60, 61, 62, 63, 64, 65, 66, 67, 68, 69, 70, 71, 72, 73, 74, 75, 76, 77, 78, 79, 80, 81, 82, 83, 84, 85, 86, 87, 88, 89, 90, 91, 92, 93, 94, 95, 96, 97, 98, 99, 100, 101, 102, 103, 104, 105, 106, 107, 108, 109, 110, 111, 112, 113, 114, 115, 116, 117, 118, 119, 120, 121, 122, 123, 124, 125, 126, 127, 128, 129, 130, 131, 132, 133, 134, 135, 136, 137, 138, 139, 140, 141, 142, 143, 144, 145, 146, 147, 148, 149, 150, 151, 152, 153, 154, 155, 156, 157, 158, 159, 160, 161, 162, 163, 164, 165, 166, 167, 168, 169, 170, 171, 172, 173, 174, 175, 176, 177, 178, 179, 180, 181, 182, 183, 184, 185, 186, 187, 188, 189, 190, 191, 192, 193, 194, 195, 196, 197, 198, 199, 200, 201, 202, 203, 204, 205, 206, 207, 208, 209, 210, 211, 212, 213, 214, 215, 216, 217, 218, 219, 220, 221, 222, 223, 224, 225, 226, 227, 228, 229, 230, 231, 232, 233, 234, 235, 236, 237, 238, 239, 240, 241, 242, 243, 244, 245, 246, 247, 248, 249, 250, 251, 252, 253, 254, 255, 256, 257, 258, 259, 260, 261, 262, 263, 264, 265, 266, 267, 268, 269, 270, 271, 272, 273, 274, 275, 276, 277, 278, 279, 280, 281, 282, 283, 284, 285, 286, 287, 288, 289, 290, 291, 292, 293, 294, 295, 296, 297, 298, 299, 300, 301, 302, 303, 304, 305, 306, 307, 308, 309, 310, 311, 312, 313, 314, 315, 316, 317, 318, 319, 320, 321, 322, 323, 324, 325, 326, 327, 328, 329, 330, 331, 332, 333, 334, 335, 336, 337, 338, 339, 340, 341, 342, 343, 344, 345, 346, 347, 348, 349, 350, 351, 352, 353, 354, 355, 356, 357, 358, 359, 360, 361, 362, 363, 364, 365, 366, 367, 368, 369, 370, 371, 372, 373, 374, 375, 376, 377, 378, 379, 380, 381, 382, 383, 384, 385, 386, 387, 388, 389, 390, 391, 392, 393, 394, 395, 396, 397, 398, 399, 400, 401, 402, 403, 404, 405, 406, 407, 408, 409, 410, 411, 412, 413, 414, 415, 416, 417, 418, 419, 420],
      "AcquisitionTime": ["112639.307500", "112640.797500", "112642.287500", "112643.777500", "112645.267500", "112646.757500", "112648.247500", "112649.737500", "112651.227500", "112652.717500", "112654.207500", "112655.697500", "112657.187500", "112658.677500", "112700.167500", "112701.657500", "112703.147500", "112704.637500", "112706.127500", "112707.617500", "112709.107500", "112710.597500", "112712.087500", "112713.577500", "112715.067500", "112716.557500", "112718.047500", "112719.537500", "112721.027500", "112722.517500", "112724.007500", "112725.497500", "112726.987500", "112728.477500", "112729.967500", "112731.457500", "112732.947500", "112734.437500", "112735.927500", "112737.417500", "112738.907500", "112740.397500", "112741.887500", "112743.377500", "112744.867500", "112746.357500", "112747.847500", "112749.337500", "112750.827500", "112752.317500", "112753.807500", "112755.297500", "112756.787500", "112758.277500", "112759.767500", "112801.257500", "112802.747500", "112804.237500", "112805.727500", "112807.217500", "112808.707500", "112810.197500", "112811.687500", "112813.177500", "112814.667500", "112816.157500", "112817.647500", "112819.137500", "112820.627500", "112822.117500", "112823.607500", "112825.097500", "112826.587500", "112828.077500", "112829.567500", "112831.057500", "112832.547500", "112834.037500", "112835.527500", "112837.017500", "112838.507500", "112839.997500", "112841.487500", "112842.977500", "112844.467500", "112845.957500", "112847.447500", "112848.937500", "112850.427500", "112851.917500", "112853.407500", "112854.897500", "112856.387500", "112857.877500", "112859.367500", "112900.857500", "112902.347500", "112903.837500", "112905.327500", "112906.817500", "112908.307500", "112909.797500", "112911.287500", "112912.777500", "112914.267500", "112915.757500", "112917.247500", "112918.737500", "112920.227500", "112921.717500", "112923.207500", "112924.697500", "112926.187500", "112927.677500", "112929.167500", "112930.657500", "112932.147500", "112933.637500", "112935.127500", "112936.617500", "112938.107500", "112939.597500", "112941.087500", "112942.577500", "112944.067500", "112945.557500", "112947.047500", "112948.537500", "112950.027500", "112951.517500", "112953.007500", "112954.497500", "112955.987500", "112957.477500", "112958.967500", "113000.457500", "113001.947500", "113003.437500", "113004.927500", "113006.417500", "113007.907500", "113009.397500", "113010.887500", "113012.377500", "113013.867500", "113015.357500", "113016.847500", "113018.337500", "113019.827500", "113021.317500", "113022.807500", "113024.297500", "113025.787500", "113027.277500", "113028.767500", "113030.257500", "113031.747500", "113033.237500", "113034.727500", "113036.217500", "113037.707500", "113039.197500", "113040.687500", "113042.177500", "113043.667500", "113045.157500", "113046.647500", "113048.137500", "113049.627500", "113051.117500", "113052.607500", "113054.097500", "113055.587500", "113057.077500", "113058.567500", "113100.057500", "113101.547500", "113103.037500", "113104.527500", "113106.017500", "113107.507500", "113108.997500", "113110.487500", "113111.977500", "113113.467500", "113114.957500", "113116.447500", "113117.937500", "113119.427500", "113120.917500", "113122.407500", "113123.897500", "113125.387500", "113126.877500", "113128.367500", "113129.857500", "113131.347500", "113132.837500", "113134.327500", "113135.817500", "113137.307500", "113138.797500", "113140.287500", "113141.777500", "113143.267500", "113144.757500", "113146.247500", "113147.737500", "113149.227500", "113150.717500", "113152.207500", "113153.697500", "113155.187500", "113156.677500", "113158.167500", "113159.657500", "113201.147500", "113202.637500", "113204.127500", "113205.617500", "113207.107500", "113208.597500", "113210.087500", "113211.577500", "113213.067500", "113214.557500", "113216.047500", "113217.537500", "113219.027500", "113220.517500", "113222.007500", "113223.497500", "113224.987500", "113226.477500", "113227.967500", "113229.457500", "113230.947500", "113232.437500", "113233.927500", "113235.417500", "113236.907500", "113238.397500", "113239.887500", "113241.377500", "113242.867500", "113244.357500", "113245.847500", "113247.337500", "113248.827500", "113250.317500", "113251.807500", "113253.297500", "113254.787500", "113256.277500", "113257.767500", "113259.257500", "113300.747500", "113302.237500", "113303.727500", "113305.217500", "113306.707500", "113308.197500", "113309.687500", "113311.177500", "113312.667500", "113314.157500", "113315.647500", "113317.137500", "113318.627500", "113320.117500", "113321.607500", "113323.097500", "113324.587500", "113326.077500", "113327.567500", "113329.057500", "113330.547500", "113332.037500", "113333.527500", "113335.017500", "113336.507500", "113337.997500", "113339.487500", "113340.977500", "113342.467500", "113343.957500", "113345.447500", "113346.937500", "113348.427500", "113349.917500", "113351.407500", "113352.897500", "113354.387500", "113355.877500", "113357.367500", "113358.857500", "113400.347500", "113401.837500", "113403.327500", "113404.817500", "113406.307500", "113407.797500", "113409.287500", "113410.777500", "113412.267500", "113413.757500", "113415.247500", "113416.737500", "113418.227500", "113419.717500", "113421.207500", "113422.697500", "113424.187500", "113425.677500", "113427.167500", "113428.657500", "113430.147500", "113431.637500", "113433.127500", "113434.617500", "113436.107500", "113437.597500", "113439.087500", "113440.577500", "113442.067500", "113443.557500", "113445.047500", "113446.537500", "113448.027500", "113449.517500", "113451.007500", "113452.497500", "113453.987500", "113455.477500", "113456.967500", "113458.457500", "113459.947500", "113501.437500", "113502.927500", "113504.417500", "113505.907500", "113507.397500", "113508.887500", "113510.377500", "113511.867500", "113513.357500", "113514.847500", "113516.337500", "113517.827500", "113519.317500", "113520.807500", "113522.297500", "113523.787500", "113525.277500", "113526.767500", "113528.257500", "113529.747500", "113531.237500", "113532.727500", "113534.217500", "113535.707500", "113537.197500", "113538.687500", "113540.177500", "113541.667500", "113543.157500", "113544.647500", "113546.137500", "113547.627500", "113549.117500", "113550.607500", "113552.097500", "113553.587500", "113555.077500", "113556.567500", "113558.057500", "113559.547500", "113601.037500", "113602.527500", "113604.017500", "113605.507500", "113606.997500", "113608.487500", "113609.977500", "113611.467500", "113612.957500", "113614.447500", "113615.937500", "113617.427500", "113618.917500", "113620.407500", "113621.897500", "113623.387500", "113624.877500", "113626.367500", "113627.857500", "113629.347500", "113630.837500", "113632.327500", "113633.817500", "113635.307500", "113636.797500", "113638.287500", "113639.777500", "113641.267500", "113642.757500", "113644.247500", "113645.737500", "113647.227500", "113648.717500", "113650.207500", "113651.697500", "113653.187500", "113654.677500", "113656.167500", "113657.657500", "113659.147500", "113700.637500", "113702.127500", "113703.617500"],
      "ContentTime": ["112802.896000", "112802.900000", "112802.903000", "112802.906000", "112802.909000", "112802.912000", "112802.916000", "112802.919000", "112802.923000", "112802.926000", "112802.929000", "112802.932000", "112802.935000", "112802.938000", "112802.941000", "112802.944000", "112802.947000", "112802.950000", "112802.952000", "112802.955000", "112802.958000", "112802.961000", "112802.964000", "112802.967000", "112802.970000", "112802.973000", "112802.989000", "112803.002000", "112803.005000", "112822.858000", "112822.862000", "112822.865000", "112822.895000", "112822.898000", "112822.900000", "112822.903000", "112822.906000", "112822.909000", "112822.912000", "112822.930000", "112822.933000", "112822.948000", "112822.951000", "112822.954000", "112822.957000", "112822.960000", "112822.963000", "112822.965000", "112822.968000", "112842.858000", "112842.861000", "112842.864000", "112842.867000", "112842.870000", "112842.873000", "112842.875000", "112842.878000", "112842.881000", "112842.884000", "112842.887000", "112842.890000", "112842.893000", "112842.895000", "112842.898000", "112842.901000", "112842.904000", "112842.907000", "112842.910000", "112842.913000", "112842.916000", "112902.859000", "112902.862000", "112902.865000", "112902.868000", "112902.871000", "112902.873000", "112902.876000", "112902.879000", "112902.882000", "112902.885000", "112902.888000", "112902.891000", "112902.894000", "112902.896000", "112902.899000", "112902.902000", "112902.905000", "112902.908000", "112902.912000", "112902.918000", "112942.859000", "112942.862000", "112942.865000", "112942.868000", "112942.871000", "112942.874000", "112942.876000", "112942.879000", "112942.882000", "112942.885000", "112942.890000", "112942.893000", "112942.896000", "112942.899000", "112942.902000", "112942.905000", "112942.908000", "112942.911000", "112942.914000", "112942.917000", "112942.919000", "112942.922000", "112942.925000", "112942.928000", "112942.931000", "112942.934000", "112942.936000", "112942.939000", "112942.942000", "112942.945000", "112942.948000", "112942.951000", "113022.859000", "113022.862000", "113022.865000", "113022.868000", "113022.871000", "113022.874000", "113022.877000", "113022.879000", "113022.882000", "113022.885000", "113022.888000", "113022.891000", "113022.894000", "113022.897000", "113022.900000", "113022.903000", "113022.906000", "113022.909000", "113022.911000", "113022.914000", "113022.917000", "113022.920000", "113022.923000", "113022.926000", "113022.929000", "113022.932000", "113022.935000", "113102.858000", "113102.861000", "113102.864000", "113102.867000", "113102.870000", "113102.873000", "113102.876000", "113102.878000", "113102.882000", "113102.884000", "113102.887000", "113102.890000", "113102.893000", "113102.896000", "113102.899000", "113102.902000", "113102.905000", "113102.908000", "113102.911000", "113102.914000", "113102.916000", "113102.919000", "113102.922000", "113102.925000", "113102.928000", "113102.931000", "113102.934000", "113142.859000", "113142.862000", "113142.865000", "113142.868000", "113142.871000", "113142.874000", "113142.876000", "113142.880000", "113142.882000", "113142.885000", "113142.888000", "113142.891000", "113142.894000", "113142.897000", "113142.900000", "113142.903000", "113142.906000", "113142.908000", "113142.911000", "113142.914000", "113142.917000", "113142.920000", "113142.923000", "113142.926000", "113142.929000", "113142.932000", "113142.935000", "113222.859000", "113222.862000", "113222.865000", "113222.868000", "113222.871000", "113222.874000", "113222.877000", "113222.879000", "113222.882000", "113222.885000", "113222.888000", "113222.891000", "113222.894000", "113222.897000", "113222.900000", "113222.903000", "113222.906000", "113222.909000", "113222.912000", "113222.915000", "113222.917000", "113222.920000", "113222.923000", "113222.926000", "113222.929000", "113222.932000", "113222.935000", "113302.858000", "113302.861000", "113302.864000", "113302.867000", "113302.870000", "113302.873000", "113302.876000", "113302.883000", "113302.886000", "113302.889000", "113302.905000", "113302.908000", "113302.911000", "113302.914000", "113302.917000", "113302.920000", "113302.923000", "113302.926000", "113302.929000", "113302.933000", "113302.936000", "113302.939000", "113302.942000", "113302.945000", "113302.948000", "113302.951000", "113342.859000", "113342.862000", "113342.865000", "113342.868000", "113342.871000", "113342.874000", "113342.876000", "113342.879000", "113342.882000", "113342.885000", "113342.888000", "113342.891000", "113342.894000", "113342.897000", "113342.900000", "113342.903000", "113342.906000", "113342.908000", "113342.911000", "113342.914000", "113342.917000", "113342.920000", "113342.923000", "113342.926000", "113342.929000", "113342.932000", "113342.935000", "113422.859000", "113422.862000", "113422.865000", "113422.868000", "113422.871000", "113422.874000", "113422.877000", "113422.880000", "113422.882000", "113422.885000", "113422.888000", "113422.891000", "113422.894000", "113422.897000", "113422.900000", "113422.903000", "113422.906000", "113422.909000", "113422.912000", "113422.914000", "113422.917000", "113422.920000", "113422.923000", "113422.926000", "113422.929000", "113422.932000", "113422.935000", "113502.859000", "113502.862000", "113502.874000", "113502.877000", "113502.880000", "113502.883000", "113502.886000", "113502.889000", "113502.892000", "113502.895000", "113502.898000", "113502.901000", "113502.903000", "113502.906000", "113502.909000", "113502.912000", "113502.915000", "113502.918000", "113502.921000", "113502.924000", "113502.926000", "113502.929000", "113502.932000", "113502.935000", "113502.938000", "113502.941000", "113502.944000", "113542.858000", "113542.861000", "113542.864000", "113542.867000", "113542.870000", "113542.873000", "113542.875000", "113542.878000", "113542.881000", "113542.884000", "113542.887000", "113542.890000", "113542.893000", "113542.896000", "113542.899000", "113542.902000", "113542.905000", "113542.907000", "113542.910000", "113542.913000", "113542.916000", "113542.919000", "113542.922000", "113542.925000", "113542.928000", "113542.931000", "113542.934000", "113602.859000", "113602.862000", "113602.865000", "113602.868000", "113602.871000", "113602.874000", "113602.876000", "113602.880000", "113602.882000", "113602.885000", "113602.888000", "113602.891000", "113602.894000", "113642.859000", "113642.862000", "113642.865000", "113642.868000", "113642.878000", "113642.881000", "113642.884000", "113642.886000", "113642.889000", "113642.892000", "113642.895000", "113642.898000", "113642.901000", "113642.904000", "113642.907000", "113642.910000", "113642.913000", "113642.916000", "113642.918000", "113642.921000", "113642.924000", "113642.927000", "113642.930000", "113642.933000", "113642.936000", "113642.939000", "113642.942000", "113707.000000", "113707.004000", "113707.006000", "113707.009000", "113707.012000", "113707.015000", "113707.018000", "113707.021000", "113707.024000", "113707.027000", "113707.030000", "113707.042000", "113707.045000", "113707.048000", "113707.051000", "113707.054000"],
      "InstanceCreationTime": ["112802.896000", "112802.900000", "112802.903000", "112802.906000", "112802.909000", "112802.912000", "112802.916000", "112802.919000", "112802.923000", "112802.926000", "112802.929000", "112802.932000", "112802.935000", "112802.938000", "112802.941000", "112802.944000", "112802.947000", "112802.950000", "112802.952000", "112802.955000", "112802.958000", "112802.961000", "112802.964000", "112802.967000", "112802.970000", "112802.973000", "112802.989000", "112803.002000", "112803.005000", "112822.858000", "112822.862000", "112822.865000", "112822.895000", "112822.898000", "112822.900000", "112822.903000", "112822.906000", "112822.909000", "112822.912000", "112822.930000", "112822.933000", "112822.948000", "112822.951000", "112822.954000", "112822.957000", "112822.960000", "112822.963000", "112822.965000", "112822.968000", "112842.858000", "112842.861000", "112842.864000", "112842.867000", "112842.870000", "112842.873000", "112842.875000", "112842.878000", "112842.881000", "112842.884000", "112842.887000", "112842.890000", "112842.893000", "112842.895000", "112842.898000", "112842.901000", "112842.904000", "112842.907000", "112842.910000", "112842.913000", "112842.916000", "112902.859000", "112902.862000", "112902.865000", "112902.868000", "112902.871000", "112902.873000", "112902.876000", "112902.879000", "112902.882000", "112902.885000", "112902.888000", "112902.891000", "112902.894000", "112902.896000", "112902.899000", "112902.902000", "112902.905000", "112902.908000", "112902.912000", "112902.918000", "112942.859000", "112942.862000", "112942.865000", "112942.868000", "112942.871000", "112942.874000", "112942.876000", "112942.879000", "112942.882000", "112942.885000", "112942.890000", "112942.893000", "112942.896000", "112942.899000", "112942.902000", "112942.905000", "112942.908000", "112942.911000", "112942.914000", "112942.917000", "112942.919000", "112942.922000", "112942.925000", "112942.928000", "112942.931000", "112942.934000", "112942.936000", "112942.939000", "112942.942000", "112942.945000", "112942.948000", "112942.951000", "113022.859000", "113022.862000", "113022.865000", "113022.868000", "113022.871000", "113022.874000", "113022.877000", "113022.879000", "113022.882000", "113022.885000", "113022.888000", "113022.891000", "113022.894000", "113022.897000", "113022.900000", "113022.903000", "113022.906000", "113022.909000", "113022.911000", "113022.914000", "113022.917000", "113022.920000", "113022.923000", "113022.926000", "113022.929000", "113022.932000", "113022.935000", "113102.858000", "113102.861000", "113102.864000", "113102.867000", "113102.870000", "113102.873000", "113102.876000", "113102.878000", "113102.882000", "113102.884000", "113102.887000", "113102.890000", "113102.893000", "113102.896000", "113102.899000", "113102.902000", "113102.905000", "113102.908000", "113102.911000", "113102.914000", "113102.916000", "113102.919000", "113102.922000", "113102.925000", "113102.928000", "113102.931000", "113102.934000", "113142.859000", "113142.862000", "113142.865000", "113142.868000", "113142.871000", "113142.874000", "113142.876000", "113142.880000", "113142.882000", "113142.885000", "113142.888000", "113142.891000", "113142.894000", "113142.897000", "113142.900000", "113142.903000", "113142.906000", "113142.908000", "113142.911000", "113142.914000", "113142.917000", "113142.920000", "113142.923000", "113142.926000", "113142.929000", "113142.932000", "113142.935000", "113222.859000", "113222.862000", "113222.865000", "113222.868000", "113222.871000", "113222.874000", "113222.877000", "113222.879000", "113222.882000", "113222.885000", "113222.888000", "113222.891000", "113222.894000", "113222.897000", "113222.900000", "113222.903000", "113222.906000", "113222.909000", "113222.912000", "113222.915000", "113222.917000", "113222.920000", "113222.923000", "113222.926000", "113222.929000", "113222.932000", "113222.935000", "113302.858000", "113302.861000", "113302.864000", "113302.867000", "113302.870000", "113302.873000", "113302.876000", "113302.883000", "113302.886000", "113302.889000", "113302.905000", "113302.908000", "113302.911000", "113302.914000", "113302.917000", "113302.920000", "113302.923000", "113302.926000", "113302.929000", "113302.933000", "113302.936000", "113302.939000", "113302.942000", "113302.945000", "113302.948000", "113302.951000", "113342.859000", "113342.862000", "113342.865000", "113342.868000", "113342.871000", "113342.874000", "113342.876000", "113342.879000", "113342.882000", "113342.885000", "113342.888000", "113342.891000", "113342.894000", "113342.897000", "113342.900000", "113342.903000", "113342.906000", "113342.908000", "113342.911000", "113342.914000", "113342.917000", "113342.920000", "113342.923000", "113342.926000", "113342.929000", "113342.932000", "113342.935000", "113422.859000", "113422.862000", "113422.865000", "113422.868000", "113422.871000", "113422.874000", "113422.877000", "113422.880000", "113422.882000", "113422.885000", "113422.888000", "113422.891000", "113422.894000", "113422.897000", "113422.900000", "113422.903000", "113422.906000", "113422.909000", "113422.912000", "113422.914000", "113422.917000", "113422.920000", "113422.923000", "113422.926000", "113422.929000", "113422.932000", "113422.935000", "113502.859000", "113502.862000", "113502.874000", "113502.877000", "113502.880000", "113502.883000", "113502.886000", "113502.889000", "113502.892000", "113502.895000", "113502.898000", "113502.901000", "113502.903000", "113502.906000", "113502.909000", "113502.912000", "113502.915000", "113502.918000", "113502.921000", "113502.924000", "113502.926000", "113502.929000", "113502.932000", "113502.935000", "113502.938000", "113502.941000", "113502.944000", "113542.858000", "113542.861000", "113542.864000", "113542.867000", "113542.870000", "113542.873000", "113542.875000", "113542.878000", "113542.881000", "113542.884000", "113542.887000", "113542.890000", "113542.893000", "113542.896000", "113542.899000", "113542.902000", "113542.905000", "113542.907000", "113542.910000", "113542.913000", "113542.916000", "113542.919000", "113542.922000", "113542.925000", "113542.928000", "113542.931000", "113542.934000", "113602.859000", "113602.862000", "113602.865000", "113602.868000", "113602.871000", "113602.874000", "113602.876000", "113602.880000", "113602.882000", "113602.885000", "113602.888000", "113602.891000", "113602.894000", "113642.859000", "113642.862000", "113642.865000", "113642.868000", "113642.878000", "113642.881000", "113642.884000", "113642.886000", "113642.889000", "113642.892000", "113642.895000", "113642.898000", "113642.901000", "113642.904000", "113642.907000", "113642.910000", "113642.913000", "113642.916000", "113642.918000", "113642.921000", "113642.924000", "113642.927000", "113642.930000", "113642.933000", "113642.936000", "113642.939000", "113642.942000", "113707.000000", "113707.004000", "113707.006000", "113707.009000", "113707.012000", "113707.015000", "113707.018000", "113707.021000", "113707.024000", "113707.027000", "113707.030000", "113707.042000", "113707.045000", "113707.048000", "113707.051000", "113707.054000"],
