{
  "AcquisitionMatrixPE": 104,
  "AcquisitionNumber": 1,
  "AcquisitionTime": "11:14:16.442500",
  "BandwidthPerPixelPhaseEncode": 17.17,
  "BaseResolution": 104,
  "BodyPartExamined": "BRAIN",
  "CoilString": "HC1-7;NC1_2",
  "ConsistencyInfo": "N4_VE11C_LATEST_20160120",
  "ConversionSoftware": "dcm2niix",
  "ConversionSoftwareVersion": "v1.0.20190902",
  "DerivedVendorReportedEchoSpacing": 0.000560011,
  "DeviceSerialNumber": "167006",
  "DwellTime": 2.1e-06,
  "EchoTime": 0.037,
  "EchoTrainLength": 104,
  "EffectiveEchoSpacing": 0.000560011,
  "FlipAngle": 52,
  "ImageComments": "Unaliased_MB4_PE3_LB",
  "ImageOrientationPatientDICOM": [0.993068, 0.103404, 0.0558928, -0.0863583, 0.964424, -0.249859],
  "ImageType": [
    "ORIGINAL",
    "PRIMARY",
    "M",
    "MB",
    "ND",
    "MOSAIC"
],
  "ImagingFrequency": 123.259,
  "InPlanePhaseEncodingDirectionDICOM": "COL",
  "InstitutionAddress": "Chemin_Queen-Mary_4565_Montreal_District_CA_H3W_1W5",
  "InstitutionName": "IUGM",
  "InstitutionalDepartmentName": "Department",
  "MRAcquisitionType": "2D",
  "MagneticFieldStrength": 3,
  "Manufacturer": "Siemens",
  "ManufacturersModelName": "Prisma_fit",
  "Modality": "MR",
  "MultibandAccelerationFactor": 4,
  "PartialFourier": 1,
  "PatientPosition": "HFS",
  "PercentPhaseFOV": 100,
  "PhaseEncodingDirection": "j",
  "PhaseEncodingSteps": 104,
  "PhaseResolution": 1,
  "PixelBandwidth": 2290,
  "ProcedureStepDescription": "games_shinobi",
  "ProtocolName": "func_task-shinobi_run-2",
  "PulseSequenceDetails": "%CustomerSeq%_cmrr_mbep2d_bold",
  "ReceiveCoilActiveElements": "HC1-7;NC1,2",
  "ReceiveCoilName": "HeadNeck_64",
  "ReconMatrixPE": 104,
  "RepetitionTime": 1.49,
  "SAR": 0.0397107,
  "ScanOptions": "FS",
  "ScanningSequence": "EP",
  "SequenceName": "epfid2d1_104",
  "SequenceVariant": "SK_SS",
  "SeriesDescription": "func_task-shinobi_run-2",
  "SeriesNumber": 11,
  "ShimSetting": [630, -7229, -8832, 653, 76, -89, 111, -17],
  "SliceThickness": 2,
  "SliceTiming": [0, 0.785, 0.0975, 0.8825, 0.1975, 0.98, 0.295, 1.0775, 0.3925, 1.1775, 0.49, 1.275, 0.5875, 1.3725, 0.6875, 0, 0.785, 0.0975, 0.8825, 0.1975, 0.98, 0.295, 1.0775, 0.3925, 1.1775, 0.49, 1.275, 0.5875, 1.3725, 0.6875, 0, 0.785, 0.0975, 0.8825, 0.1975, 0.98, 0.295, 1.0775, 0.3925, 1.1775, 0.49, 1.275, 0.5875, 1.3725, 0.6875, 0, 0.785, 0.0975, 0.8825, 0.1975, 0.98, 0.295, 1.0775, 0.3925, 1.1775, 0.49, 1.275, 0.5875, 1.3725, 0.6875],
  "SoftwareVersions": "syngo_MR_E11",
  "SpacingBetweenSlices": 2,
  "StationName": "MRC35049",
  "TaskName": "shinobi",
  "TotalReadoutTime": 0.0576811,
  "TxRefAmp": 247.307,
  "WipMemBlock": "a435bb86-0b92-4add-a2ac-086377933705||Sequence: R016 ve11c/master r/e634e98; Dec 19 2017 11:00:25 by eja",
  "dcmmeta_affine": [
    [-1.9861356019973755, -0.17271657288074493, 0.15948137640953064, 110.00267791748047],
    [-0.20680737495422363, 1.928847074508667, -0.48660001158714294, -54.78586959838867],
    [0.1117856577038765, 0.4997177720069885, 1.9333354234695435, -53.75166320800781],
    [0.0, 0.0, 0.0, 1.0]
],
  "dcmmeta_reorient_transform": [
    [0.0, -1.0, 0.0, 103.0],
    [1.0, 0.0, 0.0, 0.0],
    [0.0, 0.0, 1.0, 0.0],
    [0.0, 0.0, 0.0, 1.0]
],
  "dcmmeta_shape": [104, 104, 60, 472],
  "dcmmeta_slice_dim": 2,
  "dcmmeta_version": 0.6,
  "global": {
    "const": {
      "AcquisitionMatrix": [104, 0, 0, 104],
      "AngioFlag": "N",
      "BitsAllocated": 16,
      "BitsStored": 16,
      "BodyPartExamined": "BRAIN",
      "Columns": 832,
      "EchoNumbers": 1,
      "EchoTime": 37.0,
      "EchoTrainLength": 104,
      "FlipAngle": 52.0,
      "HighBit": 15,
      "ImageOrientationPatient": [0.99306780676695, 0.10340368973373, 0.0558928270221, -0.086358285862, 0.96442354833548, -0.249858891935],
      "ImagePositionPatient": [-752.29739931764, -921.26361049277, 138.92656280622],
      "ImageType": [
        "ORIGINAL",
        "PRIMARY",
        "M",
        "MB",
        "ND",
        "MOSAIC"
],
      "ImagedNucleus": "1H",
      "ImagingFrequency": 123.259088,
      "InPlanePhaseEncodingDirection": "COL",
      "MRAcquisitionType": "2D",
      "MagneticFieldStrength": 3.0,
      "Manufacturer": "SIEMENS",
      "ManufacturerModelName": "Prisma_fit",
      "Modality": "MR",
      "NumberOfAverages": 1.0,
      "NumberOfPhaseEncodingSteps": 104,
      "PercentPhaseFieldOfView": 100.0,
      "PercentSampling": 100.0,
      "PerformedProcedureStepStartTime": "105614.853000",
      "PhotometricInterpretation": "MONOCHROME2",
      "PixelBandwidth": 2290.0,
      "PixelRepresentation": 0,
      "PixelSpacing": [2.0, 2.0],
      "ProtocolName": "func_task-shinobi_run-2",
      "RepetitionTime": 1490.0,
      "Rows": 832,
      "SAR": 0.03971069028154,
      "SamplesPerPixel": 1,
      "ScanOptions": "FS",
      "ScanningSequence": "EP",
      "SequenceName": "epfid2d1_104",
      "SequenceVariant": [
        "SK",
        "SS"
],
      "SeriesDescription": "func_task-shinobi_run-2",
      "SeriesNumber": 11,
      "SeriesTime": "111533.424000",
      "SliceLocation": -29.85890789383,
      "SliceThickness": 2.0,
      "SmallestImagePixelValue": 0,
      "SoftwareVersions": "syngo MR E11",
      "SpacingBetweenSlices": 1.9999999277735,
      "SpecificCharacterSet": "ISO_IR 100",
      "StudyID": "1",
      "StudyTime": "105614.792000",
      "TransmitCoilName": "Body",
      "VariableFlipAngleFlag": "N",
      "WindowCenterWidthExplanation": "Algo1",
      "dBdt": 0.0},
    "slices": {}
  },
  "time": {
    "samples": {
      "AcquisitionNumber": [1, 2, 3, 4, 5, 6, 7, 8, 9, 10, 11, 12, 13, 14, 15, 16, 17, 18, 19, 20, 21, 22, 23, 24, 25, 26, 27, 28, 29, 30, 31, 32, 33, 34, 35, 36, 37, 38, 39, 40, 41, 42, 43, 44, 45, 46, 47, 48, 49, 50, 51, 52, 53, 54, 55, 56, 57, 58, 59, 60, 61, 62, 63, 64, 65, 66, 67, 68, 69, 70, 71, 72, 73, 74, 75, 76, 77, 78, 79, 80, 81, 82, 83, 84, 85, 86, 87, 88, 89, 90, 91, 92, 93, 94, 95, 96, 97, 98, 99, 100, 101, 102, 103, 104, 105, 106, 107, 108, 109, 110, 111, 112, 113, 114, 115, 116, 117, 118, 119, 120, 121, 122, 123, 124, 125, 126, 127, 128, 129, 130, 131, 132, 133, 134, 135, 136, 137, 138, 139, 140, 141, 142, 143, 144, 145, 146, 147, 148, 149, 150, 151, 152, 153, 154, 155, 156, 157, 158, 159, 160, 161, 162, 163, 164, 165, 166, 167, 168, 169, 170, 171, 172, 173, 174, 175, 176, 177, 178, 179, 180, 181, 182, 183, 184, 185, 186, 187, 188, 189, 190, 191, 192, 193, 194, 195, 196, 197, 198, 199, 200, 201, 202, 203, 204, 205, 206, 207, 208, 209, 210, 211, 212, 213, 214, 215, 216, 217, 218, 219, 220, 221, 222, 223, 224, 225, 226, 227, 228, 229, 230, 231, 232, 233, 234, 235, 236, 237, 238, 239, 240, 241, 242, 243, 244, 245, 246, 247, 248, 249, 250, 251, 252, 253, 254, 255, 256, 257, 258, 259, 260, 261, 262, 263, 264, 265, 266, 267, 268, 269, 270, 271, 272, 273, 274, 275, 276, 277, 278, 279, 280, 281, 282, 283, 284, 285, 286, 287, 288, 289, 290, 291, 292, 293, 294, 295, 296, 297, 298, 299, 300, 301, 302, 303, 304, 305, 306, 307, 308, 309, 310, 311, 312, 313, 314, 315, 316, 317, 318, 319, 320, 321, 322, 323, 324, 325, 326, 327, 328, 329, 330, 331, 332, 333, 334, 335, 336, 337, 338, 339, 340, 341, 342, 343, 344, 345, 346, 347, 348, 349, 350, 351, 352, 353, 354, 355, 356, 357, 358, 359, 360, 361, 362, 363, 364, 365, 366, 367, 368, 369, 370, 371, 372, 373, 374, 375, 376, 377, 378, 379, 380, 381, 382, 383, 384, 385, 386, 387, 388, 389, 390, 391, 392, 393, 394, 395, 396, 397, 398, 399, 400, 401, 402, 403, 404, 405, 406, 407, 408, 409, 410, 411, 412, 413, 414, 415, 416, 417, 418, 419, 420, 421, 422, 423, 424, 425, 426, 427, 428, 429, 430, 431, 432, 433, 434, 435, 436, 437, 438, 439, 440, 441, 442, 443, 444, 445, 446, 447, 448, 449, 450, 451, 452, 453, 454, 455, 456, 457, 458, 459, 460, 461, 462, 463, 464, 465, 466, 467, 468, 469, 470, 471, 472],
      "AcquisitionTime": ["111416.442500", "111417.932500", "111419.422500", "111420.912500", "111422.402500", "111423.892500", "111425.382500", "111426.872500", "111428.362500", "111429.852500", "111431.342500", "111432.832500", "111434.322500", "111435.812500", "111437.302500", "111438.792500", "111440.282500", "111441.772500", "111443.262500", "111444.752500", "111446.242500", "111447.732500", "111449.222500", "111450.712500", "111452.202500", "111453.692500", "111455.182500", "111456.672500", "111458.162500", "111459.652500", "111501.142500", "111502.632500", "111504.122500", "111505.612500", "111507.102500", "111508.592500", "111510.082500", "111511.572500", "111513.062500", "111514.552500", "111516.042500", "111517.532500", "111519.022500", "111520.512500", "111522.002500", "111523.492500", "111524.982500", "111526.472500", "111527.962500", "111529.452500", "111530.942500", "111532.432500", "111533.922500", "111535.412500", "111536.902500", "111538.392500", "111539.882500", "111541.372500", "111542.862500", "111544.352500", "111545.842500", "111547.332500", "111548.822500", "111550.312500", "111551.802500", "111553.292500", "111554.782500", "111556.272500", "111557.762500", "111559.252500", "111600.742500", "111602.232500", "111603.722500", "111605.212500", "111606.702500", "111608.192500", "111609.682500", "111611.172500", "111612.662500", "111614.152500", "111615.642500", "111617.132500", "111618.622500", "111620.112500", "111621.602500", "111623.092500", "111624.582500", "111626.072500", "111627.562500", "111629.052500", "111630.542500", "111632.032500", "111633.522500", "111635.012500", "111636.502500", "111637.992500", "111639.482500", "111640.972500", "111642.462500", "111643.952500", "111645.442500", "111646.932500", "111648.422500", "111649.912500", "111651.402500", "111652.892500", "111654.382500", "111655.872500", "111657.362500", "111658.852500", "111700.342500", "111701.832500", "111703.322500", "111704.812500", "111706.302500", "111707.792500", "111709.282500", "111710.772500", "111712.262500", "111713.752500", "111715.242500", "111716.732500", "111718.222500", "111719.712500", "111721.202500", "111722.692500", "111724.182500", "111725.672500", "111727.162500", "111728.652500", "111730.142500", "111731.632500", "111733.122500", "111734.612500", "111736.102500", "111737.592500", "111739.082500", "111740.572500", "111742.062500", "111743.552500", "111745.042500", "111746.532500", "111748.022500", "111749.512500", "111751.002500", "111752.492500", "111753.982500", "111755.472500", "111756.962500", "111758.452500", "111759.942500", "111801.432500", "111802.922500", "111804.412500", "111805.902500", "111807.392500", "111808.882500", "111810.372500", "111811.862500", "111813.352500", "111814.842500", "111816.332500", "111817.822500", "111819.312500", "111820.802500", "111822.292500", "111823.782500", "111825.272500", "111826.762500", "111828.252500", "111829.742500", "111831.232500", "111832.722500", "111834.212500", "111835.702500", "111837.192500", "111838.682500", "111840.172500", "111841.662500", "111843.152500", "111844.642500", "111846.132500", "111847.622500", "111849.112500", "111850.602500", "111852.092500", "111853.582500", "111855.072500", "111856.562500", "111858.052500", "111859.542500", "111901.032500", "111902.522500", "111904.012500", "111905.502500", "111906.992500", "111908.482500", "111909.972500", "111911.462500", "111912.952500", "111914.442500", "111915.932500", "111917.422500", "111918.912500", "111920.402500", "111921.892500", "111923.382500", "111924.872500", "111926.362500", "111927.852500", "111929.342500", "111930.832500", "111932.322500", "111933.812500", "111935.302500", "111936.792500", "111938.282500", "111939.772500", "111941.262500", "111942.752500", "111944.242500", "111945.732500", "111947.222500", "111948.712500", "111950.202500", "111951.692500", "111953.182500", "111954.672500", "111956.162500", "111957.652500", "111959.142500", "112000.632500", "112002.122500", "112003.612500", "112005.102500", "112006.592500", "112008.082500", "112009.572500", "112011.062500", "112012.552500", "112014.042500", "112015.532500", "112017.022500", "112018.512500", "112020.002500", "112021.492500", "112022.982500", "112024.472500", "112025.962500", "112027.452500", "112028.942500", "112030.432500", "112031.922500", "112033.412500", "112034.902500", "112036.392500", "112037.882500", "112039.372500", "112040.862500", "112042.352500", "112043.842500", "112045.332500", "112046.822500", "112048.312500", "112049.802500", "112051.292500", "112052.782500", "112054.272500", "112055.762500", "112057.252500", "112058.742500", "112100.232500", "112101.722500", "112103.212500", "112104.702500", "112106.192500", "112107.682500", "112109.172500", "112110.662500", "112112.152500", "112113.642500", "112115.132500", "112116.622500", "112118.112500", "112119.602500", "112121.092500", "112122.582500", "112124.072500", "112125.562500", "112127.052500", "112128.542500", "112130.032500", "112131.522500", "112133.012500", "112134.502500", "112135.992500", "112137.482500", "112138.972500", "112140.462500", "112141.952500", "112143.442500", "112144.932500", "112146.422500", "112147.912500", "112149.402500", "112150.892500", "112152.382500", "112153.872500", "112155.362500", "112156.852500", "112158.342500", "112159.832500", "112201.322500", "112202.812500", "112204.302500", "112205.792500", "112207.282500", "112208.772500", "112210.262500", "112211.752500", "112213.242500", "112214.732500", "112216.222500", "112217.712500", "112219.202500", "112220.692500", "112222.182500", "112223.672500", "112225.162500", "112226.652500", "112228.142500", "112229.632500", "112231.122500", "112232.612500", "112234.102500", "112235.592500", "112237.082500", "112238.572500", "112240.062500", "112241.552500", "112243.042500", "112244.532500", "112246.022500", "112247.512500", "112249.002500", "112250.492500", "112251.982500", "112253.472500", "112254.962500", "112256.452500", "112257.942500", "112259.432500", "112300.922500", "112302.412500", "112303.902500", "112305.392500", "112306.882500", "112308.372500", "112309.862500", "112311.352500", "112312.842500", "112314.332500", "112315.822500", "112317.312500", "112318.802500", "112320.292500", "112321.782500", "112323.272500", "112324.762500", "112326.252500", "112327.742500", "112329.232500", "112330.722500", "112332.212500", "112333.702500", "112335.192500", "112336.682500", "112338.172500", "112339.662500", "112341.152500", "112342.642500", "112344.132500", "112345.622500", "112347.112500", "112348.602500", "112350.092500", "112351.582500", "112353.072500", "112354.562500", "112356.052500", "112357.542500", "112359.032500", "112400.522500", "112402.012500", "112403.502500", "112404.992500", "112406.482500", "112407.972500", "112409.462500", "112410.952500", "112412.442500", "112413.932500", "112415.422500", "112416.912500", "112418.402500", "112419.892500", "112421.382500", "112422.872500", "112424.362500", "112425.852500", "112427.342500", "112428.832500", "112430.322500", "112431.812500", "112433.302500", "112434.792500", "112436.282500", "112437.772500", "112439.262500", "112440.752500", "112442.242500", "112443.732500", "112445.222500", "112446.712500", "112448.202500", "112449.692500", "112451.182500", "112452.672500", "112454.162500", "112455.652500", "112457.142500", "112458.632500", "112500.122500", "112501.612500", "112503.102500", "112504.592500", "112506.082500", "112507.572500", "112509.062500", "112510.552500", "112512.042500", "112513.532500", "112515.022500", "112516.512500", "112518.002500", "112519.492500", "112520.982500", "112522.472500", "112523.962500", "112525.452500", "112526.942500", "112528.432500", "112529.922500", "112531.412500", "112532.902500", "112534.392500", "112535.882500", "112537.372500", "112538.862500", "112540.352500", "112541.842500", "112543.332500", "112544.822500", "112546.312500", "112547.802500", "112549.292500", "112550.782500", "112552.272500", "112553.762500", "112555.252500", "112556.742500", "112558.232500"],
      "ContentTime": ["111533.427000", "111533.430000", "111533.440000", "111533.443000", "111533.446000", "111533.448000", "111533.451000", "111533.454000", "111533.460000", "111533.463000", "111533.466000", "111533.469000", "111533.471000", "111533.474000", "111533.477000", "111533.480000", "111533.483000", "111533.486000", "111533.489000", "111533.492000", "111533.495000", "111533.498000", "111533.501000", "111553.398000", "111553.401000", "111553.404000", "111553.407000", "111553.410000", "111553.413000", "111553.416000", "111553.419000", "111553.421000", "111553.424000", "111553.427000", "111553.430000", "111553.433000", "111553.436000", "111553.439000", "111553.442000", "111553.445000", "111553.448000", "111553.451000", "111553.453000", "111613.399000", "111613.402000", "111613.405000", "111613.408000", "111613.421000", "111613.424000", "111613.427000", "111613.430000", "111613.432000", "111613.435000", "111613.438000", "111613.441000", "111613.444000", "111613.447000", "111613.450000", "111613.453000", "111613.456000", "111613.459000", "111613.462000", "111613.464000", "111633.399000", "111633.402000", "111633.405000", "111633.408000", "111633.411000", "111633.414000", "111633.417000", "111633.419000", "111633.422000", "111633.425000", "111633.428000", "111633.431000", "111633.434000", "111633.437000", "111633.440000", "111633.443000", "111633.446000", "111633.448000", "111633.451000", "111633.454000", "111653.399000", "111653.402000", "111653.405000", "111653.408000", "111653.411000", "111653.414000", "111653.417000", "111653.419000", "111653.423000", "111653.426000", "111653.429000", "111653.432000", "111653.435000", "111653.438000", "111653.441000", "111653.443000", "111653.447000", "111653.449000", "111653.452000", "111653.455000", "111653.458000", "111733.398000", "111733.401000", "111733.404000", "111733.407000", "111733.410000", "111733.413000", "111733.415000", "111733.418000", "111733.421000", "111733.424000", "111733.427000", "111733.430000", "111733.433000", "111733.436000", "111733.439000", "111733.442000", "111733.444000", "111733.447000", "111733.450000", "111733.453000", "111733.456000", "111733.459000", "111733.462000", "111733.465000", "111733.468000", "111733.471000", "111733.473000", "111813.398000", "111813.401000", "111813.404000", "111813.407000", "111813.410000", "111813.413000", "111813.416000", "111813.418000", "111813.421000", "111813.424000", "111813.427000", "111813.430000", "111813.433000", "111813.436000", "111813.439000", "111813.442000", "111813.445000", "111813.448000", "111813.451000", "111813.453000", "111813.456000", "111813.459000", "111813.462000", "111813.465000", "111813.468000", "111813.471000", "111813.473000", "111853.399000", "111853.402000", "111853.405000", "111853.408000", "111853.411000", "111853.414000", "111853.416000", "111853.419000", "111853.422000", "111853.425000", "111853.428000", "111853.431000", "111853.434000", "111853.437000", "111853.440000", "111853.451000", "111853.454000", "111853.457000", "111853.459000", "111853.462000", "111853.465000", "111853.468000", "111853.471000", "111853.474000", "111853.477000", "111853.479000", "111853.482000", "111933.399000", "111933.402000", "111933.405000", "111933.408000", "111933.411000", "111933.414000", "111933.417000", "111933.419000", "111933.422000", "111933.425000", "111933.428000", "111933.431000", "111933.434000", "111933.437000", "111933.440000", "111933.443000", "111933.446000", "111933.448000", "111933.452000", "111933.454000", "111933.457000", "111933.460000", "111933.463000", "111933.466000", "111933.469000", "111933.472000", "111933.475000", "112013.398000", "112013.401000", "112013.404000", "112013.407000", "112013.410000", "112013.413000", "112013.416000", "112013.419000", "112013.421000", "112013.424000", "112013.427000", "112013.430000", "112013.433000", "112013.436000", "112013.439000", "112013.442000", "112013.445000", "112013.448000", "112013.451000", "112013.454000", "112013.457000", "112013.460000", "112013.462000", "112013.465000", "112013.468000", "112013.471000", "112013.474000", "112053.399000", "112053.402000", "112053.405000", "112053.408000", "112053.411000", "112053.414000", "112053.417000", "112053.420000", "112053.423000", "112053.426000", "112053.428000", "112053.431000", "112053.434000", "112053.437000", "112053.440000", "112053.443000", "112053.446000", "112053.449000", "112053.452000", "112053.455000", "112053.458000", "112053.461000", "112053.463000", "112053.466000", "112053.469000", "112053.472000", "112053.475000", "112133.399000", "112133.402000", "112133.405000", "112133.408000", "112133.411000", "112133.414000", "112133.417000", "112133.420000", "112133.423000", "112133.425000", "112133.428000", "112133.431000", "112133.434000", "112133.437000", "112133.440000", "112133.443000", "112133.446000", "112133.449000", "112133.471000", "112133.474000", "112133.476000", "112133.479000", "112133.482000", "112133.485000", "112133.488000", "112133.491000", "112213.398000", "112213.401000", "112213.404000", "112213.407000", "112213.410000", "112213.413000", "112213.416000", "112213.419000", "112213.421000", "112213.424000", "112213.427000", "112213.430000", "112213.433000", "112213.436000", "112213.439000", "112213.442000", "112213.445000", "112213.448000", "112213.451000", "112213.453000", "112213.456000", "112213.459000", "112213.462000", "112213.465000", "112213.468000", "112213.471000", "112213.474000", "112253.398000", "112253.401000", "112253.404000", "112253.407000", "112253.410000", "112253.413000", "112253.416000", "112253.418000", "112253.421000", "112253.424000", "112253.427000", "112253.430000", "112253.433000", "112253.436000", "112253.439000", "112253.442000", "112253.445000", "112253.448000", "112253.450000", "112253.453000", "112253.456000", "112253.459000", "112253.462000", "112253.465000", "112253.468000", "112253.471000", "112253.474000", "112333.399000", "112333.402000", "112333.405000", "112333.408000", "112333.411000", "112333.414000", "112333.417000", "112333.420000", "112333.422000", "112333.425000", "112333.428000", "112333.431000", "112333.434000", "112333.437000", "112333.440000", "112333.455000", "112333.458000", "112333.460000", "112333.463000", "112333.466000", "112333.469000", "112333.472000", "112333.475000", "112333.478000", "112333.481000", "112333.484000", "112333.486000", "112413.399000", "112413.402000", "112413.405000", "112413.408000", "112413.411000", "112413.414000", "112413.417000", "112413.420000", "112413.422000", "112413.425000", "112413.428000", "112413.431000", "112413.434000", "112413.437000", "112413.440000", "112413.443000", "112413.446000", "112413.449000", "112413.452000", "112413.455000", "112413.457000", "112413.460000", "112413.463000", "112413.466000", "112413.469000", "112413.472000", "112413.475000", "112453.398000", "112453.401000", "112453.404000", "112453.407000", "112453.410000", "112453.413000", "112453.416000", "112453.418000", "112453.421000", "112453.424000", "112453.427000", "112453.430000", "112453.433000", "112453.436000", "112453.439000", "112453.442000", "112453.445000", "112453.448000", "112453.451000", "112453.453000", "112453.456000", "112453.459000", "112453.462000", "112453.465000", "112453.468000", "112453.471000", "112453.474000", "112533.399000", "112533.402000", "112533.405000", "112533.408000", "112533.411000", "112533.414000", "112533.417000", "112533.420000", "112533.423000", "112533.426000", "112533.429000", "112533.432000", "112533.435000", "112533.437000", "112533.440000", "112533.443000", "112533.446000", "112533.449000", "112533.452000", "112533.455000", "112533.458000", "112533.461000", "112533.464000", "112533.467000", "112533.470000", "112533.473000", "112553.399000", "112553.402000", "112553.405000", "112553.408000", "112553.411000", "112553.414000", "112553.417000", "112553.420000", "112553.423000", "112553.426000", "112553.428000", "112553.431000", "112553.434000", "112553.437000", "112601.108000", "112601.112000", "112601.115000", "112601.117000", "112601.121000"],
