{
  "AcquisitionMatrixPE": 104,
  "AcquisitionNumber": 1,
  "AcquisitionTime": "11:37:35.147500",
  "BandwidthPerPixelPhaseEncode": 17.17,
  "BaseResolution": 104,
  "BodyPartExamined": "BRAIN",
  "CoilString": "HC1-7;NC1_2",
  "ConsistencyInfo": "N4_VE11C_LATEST_20160120",
  "ConversionSoftware": "dcm2niix",
  "ConversionSoftwareVersion": "v1.0.20190902",
  "DerivedVendorReportedEchoSpacing": 0.000560011,
  "DeviceSerialNumber": "167006",
  "DwellTime": 2.1e-06,
  "EchoTime": 0.037,
  "EchoTrainLength": 104,
  "EffectiveEchoSpacing": 0.000560011,
  "FlipAngle": 52,
  "ImageComments": "Unaliased_MB4_PE3_LB",
  "ImageOrientationPatientDICOM": [0.993068, 0.103404, 0.0558928, -0.0863583, 0.964424, -0.249859],
  "ImageType": [
    "ORIGINAL",
    "PRIMARY",
    "M",
    "MB",
    "ND",
    "MOSAIC"
],
  "ImagingFrequency": 123.259,
  "InPlanePhaseEncodingDirectionDICOM": "COL",
  "InstitutionAddress": "Chemin_Queen-Mary_4565_Montreal_District_CA_H3W_1W5",
  "InstitutionName": "IUGM",
  "InstitutionalDepartmentName": "Department",
  "MRAcquisitionType": "2D",
  "MagneticFieldStrength": 3,
  "Manufacturer": "Siemens",
  "ManufacturersModelName": "Prisma_fit",
  "Modality": "MR",
  "MultibandAccelerationFactor": 4,
  "PartialFourier": 1,
  "PatientPosition": "HFS",
  "PercentPhaseFOV": 100,
  "PhaseEncodingDirection": "j",
  "PhaseEncodingSteps": 104,
  "PhaseResolution": 1,
  "PixelBandwidth": 2290,
  "ProcedureStepDescription": "games_shinobi",
  "ProtocolName": "func_task-shinobi_run-4",
  "PulseSequenceDetails": "%CustomerSeq%_cmrr_mbep2d_bold",
  "ReceiveCoilActiveElements": "HC1-7;NC1,2",
  "ReceiveCoilName": "HeadNeck_64",
  "ReconMatrixPE": 104,
  "RepetitionTime": 1.49,
  "SAR": 0.0397107,
  "ScanOptions": "FS",
  "ScanningSequence": "EP",
  "SequenceName": "epfid2d1_104",
  "SequenceVariant": "SK_SS",
  "SeriesDescription": "func_task-shinobi_run-4",
  "SeriesNumber": 15,
  "ShimSetting": [630, -7229, -8832, 653, 76, -89, 111, -17],
  "SliceThickness": 2,
  "SliceTiming": [0, 0.7825, 0.0975, 0.88, 0.195, 0.98, 0.2925, 1.0775, 0.39, 1.175, 0.49, 1.2725, 0.5875, 1.37, 0.685, 0, 0.7825, 0.0975, 0.88, 0.195, 0.98, 0.2925, 1.0775, 0.39, 1.175, 0.49, 1.2725, 0.5875, 1.37, 0.685, 0, 0.7825, 0.0975, 0.88, 0.195, 0.98, 0.2925, 1.0775, 0.39, 1.175, 0.49, 1.2725, 0.5875, 1.37, 0.685, 0, 0.7825, 0.0975, 0.88, 0.195, 0.98, 0.2925, 1.0775, 0.39, 1.175, 0.49, 1.2725, 0.5875, 1.37, 0.685],
  "SoftwareVersions": "syngo_MR_E11",
  "SpacingBetweenSlices": 2,
  "StationName": "MRC35049",
  "TaskName": "shinobi",
  "TotalReadoutTime": 0.0576811,
  "TxRefAmp": 247.307,
  "WipMemBlock": "ce5258df-3f9b-44d2-aefd-d494baa3e1ea||Sequence: R016 ve11c/master r/e634e98; Dec 19 2017 11:00:25 by eja",
  "dcmmeta_affine": [
    [-1.9861356019973755, -0.17271657288074493, 0.15948137640953064, 110.00267791748047],
    [-0.20680737495422363, 1.928847074508667, -0.48660001158714294, -54.78586959838867],
    [0.1117856577038765, 0.4997177720069885, 1.9333354234695435, -53.75166320800781],
    [0.0, 0.0, 0.0, 1.0]
],
  "dcmmeta_reorient_transform": [
    [0.0, -1.0, 0.0, 103.0],
    [1.0, 0.0, 0.0, 0.0],
    [0.0, 0.0, 1.0, 0.0],
    [0.0, 0.0, 0.0, 1.0]
],
  "dcmmeta_shape": [104, 104, 60, 425],
  "dcmmeta_slice_dim": 2,
  "dcmmeta_version": 0.6,
  "global": {
    "const": {
      "AcquisitionMatrix": [104, 0, 0, 104],
      "AngioFlag": "N",
      "BitsAllocated": 16,
      "BitsStored": 16,
      "BodyPartExamined": "BRAIN",
      "Columns": 832,
      "EchoNumbers": 1,
      "EchoTime": 37.0,
      "EchoTrainLength": 104,
      "FlipAngle": 52.0,
      "HighBit": 15,
      "ImageOrientationPatient": [0.99306780676695, 0.10340368973373, 0.0558928270221, -0.086358285862, 0.96442354833548, -0.249858891935],
      "ImagePositionPatient": [-752.29739931764, -921.26361049277, 138.92656280622],
      "ImageType": [
        "ORIGINAL",
        "PRIMARY",
        "M",
        "MB",
        "ND",
        "MOSAIC"
],
      "ImagedNucleus": "1H",
      "ImagingFrequency": 123.259095,
      "InPlanePhaseEncodingDirection": "COL",
      "MRAcquisitionType": "2D",
      "MagneticFieldStrength": 3.0,
      "Manufacturer": "SIEMENS",
      "ManufacturerModelName": "Prisma_fit",
      "Modality": "MR",
      "NumberOfAverages": 1.0,
      "NumberOfPhaseEncodingSteps": 104,
      "PercentPhaseFieldOfView": 100.0,
      "PercentSampling": 100.0,
      "PerformedProcedureStepStartTime": "105614.853000",
      "PhotometricInterpretation": "MONOCHROME2",
      "PixelBandwidth": 2290.0,
      "PixelRepresentation": 0,
      "PixelSpacing": [2.0, 2.0],
      "ProtocolName": "func_task-shinobi_run-4",
      "RepetitionTime": 1490.0,
      "Rows": 832,
      "SAR": 0.03971069028154,
      "SamplesPerPixel": 1,
      "ScanOptions": "FS",
      "ScanningSequence": "EP",
      "SequenceName": "epfid2d1_104",
      "SequenceVariant": [
        "SK",
        "SS"
],
      "SeriesDescription": "func_task-shinobi_run-4",
      "SeriesNumber": 15,
      "SeriesTime": "113859.564000",
      "SliceLocation": -29.85890789383,
      "SliceThickness": 2.0,
      "SmallestImagePixelValue": 0,
      "SoftwareVersions": "syngo MR E11",
      "SpacingBetweenSlices": 1.9999999277735,
      "SpecificCharacterSet": "ISO_IR 100",
      "StudyID": "1",
      "StudyTime": "105614.792000",
      "TransmitCoilName": "Body",
      "VariableFlipAngleFlag": "N",
      "WindowCenterWidthExplanation": "Algo1",
      "dBdt": 0.0},
    "slices": {}
  },
  "time": {
    "samples": {
      "AcquisitionNumber": [1, 2, 3, 4, 5, 6, 7, 8, 9, 10, 11, 12, 13, 14, 15, 16, 17, 18, 19, 20, 21, 22, 23, 24, 25, 26, 27, 28, 29, 30, 31, 32, 33, 34, 35, 36, 37, 38, 39, 40, 41, 42, 43, 44, 45, 46, 47, 48, 49, 50, 51, 52, 53, 54, 55, 56, 57, 58, 59, 60, 61, 62, 63, 64, 65, 66, 67, 68, 69, 70, 71, 72, 73, 74, 75, 76, 77, 78, 79, 80, 81, 82, 83, 84, 85, 86, 87, 88, 89, 90, 91, 92, 93, 94, 95, 96, 97, 98, 99, 100, 101, 102, 103, 104, 105, 106, 107, 108, 109, 110, 111, 112, 113, 114, 115, 116, 117, 118, 119, 120, 121, 122, 123, 124, 125, 126, 127, 128, 129, 130, 131, 132, 133, 134, 135, 136, 137, 138, 139, 140, 141, 142, 143, 144, 145, 146, 147, 148, 149, 150, 151, 152, 153, 154, 155, 156, 157, 158, 159, 160, 161, 162, 163, 164, 165, 166, 167, 168, 169, 170, 171, 172, 173, 174, 175, 176, 177, 178, 179, 180, 181, 182, 183, 184, 185, 186, 187, 188, 189, 190, 191, 192, 193, 194, 195, 196, 197, 198, 199, 200, 201, 202, 203, 204, 205, 206, 207, 208, 209, 210, 211, 212, 213, 214, 215, 216, 217, 218, 219, 220, 221, 222, 223, 224, 225, 226, 227, 228, 229, 230, 231, 232, 233, 234, 235, 236, 237, 238, 239, 240, 241, 242, 243, 244, 245, 246, 247, 248, 249, 250, 251, 252, 253, 254, 255, 256, 257, 258, 259, 260, 261, 262, 263, 264, 265, 266, 267, 268, 269, 270, 271, 272, 273, 274, 275, 276, 277, 278, 279, 280, 281, 282, 283, 284, 285, 286, 287, 288, 289, 290, 291, 292, 293, 294, 295, 296, 297, 298, 299, 300, 301, 302, 303, 304, 305, 306, 307, 308, 309, 310, 311, 312, 313, 314, 315, 316, 317, 318, 319, 320, 321, 322, 323, 324, 325, 326, 327, 328, 329, 330, 331, 332, 333, 334, 335, 336, 337, 338, 339, 340, 341, 342, 343, 344, 345, 346, 347, 348, 349, 350, 351, 352, 353, 354, 355, 356, 357, 358, 359, 360, 361, 362, 363, 364, 365, 366, 367, 368, 369, 370, 371, 372, 373, 374, 375, 376, 377, 378, 379, 380, 381, 382, 383, 384, 385, 386, 387, 388, 389, 390, 391, 392, 393, 394, 395, 396, 397, 398, 399, 400, 401, 402, 403, 404, 405, 406, 407, 408, 409, 410, 411, 412, 413, 414, 415, 416, 417, 418, 419, 420, 421, 422, 423, 424, 425],
      "AcquisitionTime": ["113735.147500", "113736.637500", "113738.127500", "113739.617500", "113741.107500", "113742.597500", "113744.087500", "113745.577500", "113747.067500", "113748.557500", "113750.047500", "113751.537500", "113753.027500", "113754.517500", "113756.007500", "113757.497500", "113758.987500", "113800.477500", "113801.967500", "113803.457500", "113804.947500", "113806.437500", "113807.927500", "113809.417500", "113810.907500", "113812.397500", "113813.887500", "113815.377500", "113816.867500", "113818.357500", "113819.847500", "113821.337500", "113822.827500", "113824.317500", "113825.807500", "113827.297500", "113828.787500", "113830.277500", "113831.767500", "113833.257500", "113834.747500", "113836.237500", "113837.727500", "113839.217500", "113840.707500", "113842.197500", "113843.687500", "113845.177500", "113846.667500", "113848.157500", "113849.647500", "113851.137500", "113852.627500", "113854.117500", "113855.607500", "113857.097500", "113858.587500", "113900.077500", "113901.567500", "113903.057500", "113904.547500", "113906.037500", "113907.527500", "113909.017500", "113910.507500", "113911.997500", "113913.487500", "113914.977500", "113916.467500", "113917.957500", "113919.447500", "113920.937500", "113922.427500", "113923.917500", "113925.407500", "113926.897500", "113928.387500", "113929.877500", "113931.367500", "113932.857500", "113934.347500", "113935.837500", "113937.327500", "113938.817500", "113940.307500", "113941.797500", "113943.287500", "113944.777500", "113946.267500", "113947.757500", "113949.247500", "113950.737500", "113952.227500", "113953.717500", "113955.207500", "113956.697500", "113958.187500", "113959.677500", "114001.167500", "114002.657500", "114004.147500", "114005.637500", "114007.127500", "114008.617500", "114010.107500", "114011.597500", "114013.087500", "114014.577500", "114016.067500", "114017.557500", "114019.047500", "114020.537500", "114022.027500", "114023.517500", "114025.007500", "114026.497500", "114027.987500", "114029.477500", "114030.967500", "114032.457500", "114033.947500", "114035.437500", "114036.927500", "114038.417500", "114039.907500", "114041.397500", "114042.887500", "114044.377500", "114045.867500", "114047.357500", "114048.847500", "114050.337500", "114051.827500", "114053.317500", "114054.807500", "114056.297500", "114057.787500", "114059.277500", "114100.767500", "114102.257500", "114103.747500", "114105.237500", "114106.727500", "114108.217500", "114109.707500", "114111.197500", "114112.687500", "114114.177500", "114115.667500", "114117.157500", "114118.647500", "114120.137500", "114121.627500", "114123.117500", "114124.607500", "114126.097500", "114127.587500", "114129.077500", "114130.567500", "114132.057500", "114133.547500", "114135.037500", "114136.527500", "114138.017500", "114139.507500", "114140.997500", "114142.487500", "114143.977500", "114145.467500", "114146.957500", "114148.447500", "114149.937500", "114151.427500", "114152.917500", "114154.407500", "114155.897500", "114157.387500", "114158.877500", "114200.367500", "114201.857500", "114203.347500", "114204.837500", "114206.327500", "114207.817500", "114209.307500", "114210.797500", "114212.287500", "114213.777500", "114215.267500", "114216.757500", "114218.247500", "114219.737500", "114221.227500", "114222.717500", "114224.207500", "114225.697500", "114227.187500", "114228.677500", "114230.167500", "114231.657500", "114233.147500", "114234.637500", "114236.127500", "114237.617500", "114239.107500", "114240.597500", "114242.087500", "114243.577500", "114245.067500", "114246.557500", "114248.047500", "114249.537500", "114251.027500", "114252.517500", "114254.007500", "114255.497500", "114256.987500", "114258.477500", "114259.967500", "114301.457500", "114302.947500", "114304.437500", "114305.927500", "114307.417500", "114308.907500", "114310.397500", "114311.887500", "114313.377500", "114314.867500", "114316.357500", "114317.847500", "114319.337500", "114320.827500", "114322.317500", "114323.807500", "114325.297500", "114326.787500", "114328.277500", "114329.767500", "114331.257500", "114332.747500", "114334.237500", "114335.727500", "114337.217500", "114338.707500", "114340.197500", "114341.687500", "114343.177500", "114344.667500", "114346.157500", "114347.647500", "114349.137500", "114350.627500", "114352.117500", "114353.607500", "114355.097500", "114356.587500", "114358.077500", "114359.567500", "114401.057500", "114402.547500", "114404.037500", "114405.527500", "114407.017500", "114408.507500", "114409.997500", "114411.487500", "114412.977500", "114414.467500", "114415.957500", "114417.447500", "114418.937500", "114420.427500", "114421.917500", "114423.407500", "114424.897500", "114426.387500", "114427.877500", "114429.367500", "114430.857500", "114432.347500", "114433.837500", "114435.327500", "114436.817500", "114438.307500", "114439.797500", "114441.287500", "114442.777500", "114444.267500", "114445.757500", "114447.247500", "114448.737500", "114450.227500", "114451.717500", "114453.207500", "114454.697500", "114456.187500", "114457.677500", "114459.167500", "114500.657500", "114502.147500", "114503.637500", "114505.127500", "114506.617500", "114508.107500", "114509.597500", "114511.087500", "114512.577500", "114514.067500", "114515.557500", "114517.047500", "114518.537500", "114520.027500", "114521.517500", "114523.007500", "114524.497500", "114525.987500", "114527.477500", "114528.967500", "114530.457500", "114531.947500", "114533.437500", "114534.927500", "114536.417500", "114537.907500", "114539.397500", "114540.887500", "114542.377500", "114543.867500", "114545.357500", "114546.847500", "114548.337500", "114549.827500", "114551.317500", "114552.807500", "114554.297500", "114555.787500", "114557.277500", "114558.767500", "114600.257500", "114601.747500", "114603.237500", "114604.727500", "114606.217500", "114607.707500", "114609.197500", "114610.687500", "114612.177500", "114613.667500", "114615.157500", "114616.647500", "114618.137500", "114619.627500", "114621.117500", "114622.607500", "114624.097500", "114625.587500", "114627.077500", "114628.567500", "114630.057500", "114631.547500", "114633.037500", "114634.527500", "114636.017500", "114637.507500", "114638.997500", "114640.487500", "114641.977500", "114643.467500", "114644.957500", "114646.447500", "114647.937500", "114649.427500", "114650.917500", "114652.407500", "114653.897500", "114655.387500", "114656.877500", "114658.367500", "114659.857500", "114701.347500", "114702.837500", "114704.327500", "114705.817500", "114707.307500", "114708.797500", "114710.287500", "114711.777500", "114713.267500", "114714.757500", "114716.247500", "114717.737500", "114719.227500", "114720.717500", "114722.207500", "114723.697500", "114725.187500", "114726.677500", "114728.167500", "114729.657500", "114731.147500", "114732.637500", "114734.127500", "114735.617500", "114737.107500", "114738.597500", "114740.087500", "114741.577500", "114743.067500", "114744.557500", "114746.047500", "114747.537500", "114749.027500", "114750.517500", "114752.007500", "114753.497500", "114754.987500", "114756.477500", "114757.967500", "114759.457500", "114800.947500", "114802.437500", "114803.927500", "114805.417500", "114806.907500"],
      "ContentTime": ["113859.566000", "113859.570000", "113859.573000", "113859.576000", "113859.578000", "113859.581000", "113859.584000", "113859.587000", "113859.590000", "113859.593000", "113859.596000", "113859.599000", "113859.602000", "113859.604000", "113859.607000", "113859.610000", "113859.613000", "113859.616000", "113859.620000", "113859.623000", "113859.626000", "113859.629000", "113859.632000", "113859.634000", "113859.637000", "113859.640000", "113859.643000", "113859.646000", "113859.649000", "113859.652000", "113859.655000", "113919.532000", "113919.535000", "113919.538000", "113919.541000", "113919.544000", "113919.547000", "113919.550000", "113919.552000", "113919.555000", "113919.558000", "113919.561000", "113919.564000", "113919.567000", "113919.570000", "113919.573000", "113919.576000", "113919.578000", "113919.581000", "113919.584000", "113919.587000", "113939.532000", "113939.535000", "113939.538000", "113939.541000", "113939.544000", "113939.547000", "113939.550000", "113939.552000", "113939.555000", "113939.558000", "113939.561000", "113939.574000", "113939.577000", "113939.580000", "113939.583000", "113939.586000", "113939.589000", "113939.591000", "113939.594000", "113939.597000", "113959.532000", "113959.541000", "113959.544000", "113959.547000", "113959.550000", "113959.552000", "113959.555000", "113959.558000", "113959.561000", "113959.564000", "113959.567000", "113959.570000", "113959.573000", "113959.576000", "113959.579000", "113959.582000", "113959.585000", "113959.587000", "113959.590000", "113959.593000", "114039.532000", "114039.535000", "114039.538000", "114039.541000", "114039.544000", "114039.547000", "114039.556000", "114039.559000", "114039.561000", "114039.564000", "114039.567000", "114039.570000", "114039.573000", "114039.576000", "114039.579000", "114039.582000", "114039.585000", "114039.587000", "114039.590000", "114039.593000", "114039.596000", "114039.599000", "114039.602000", "114039.605000", "114039.608000", "114039.611000", "114039.614000", "114039.617000", "114039.619000", "114039.622000", "114039.625000", "114039.628000", "114119.532000", "114119.535000", "114119.538000", "114119.541000", "114119.544000", "114119.547000", "114119.549000", "114119.552000", "114119.555000", "114119.558000", "114119.561000", "114119.564000", "114119.567000", "114119.570000", "114119.573000", "114119.575000", "114119.578000", "114119.581000", "114119.584000", "114119.587000", "114119.590000", "114119.593000", "114119.596000", "114119.599000", "114119.602000", "114119.605000", "114119.607000", "114159.532000", "114159.535000", "114159.538000", "114159.541000", "114159.544000", "114159.551000", "114159.554000", "114159.557000", "114159.560000", "114159.563000", "114159.566000", "114159.569000", "114159.572000", "114159.574000", "114159.577000", "114159.580000", "114159.583000", "114159.586000", "114159.589000", "114159.592000", "114159.595000", "114159.597000", "114159.600000", "114159.603000", "114159.606000", "114159.609000", "114159.612000", "114239.532000", "114239.535000", "114239.538000", "114239.541000", "114239.544000", "114239.547000", "114239.549000", "114239.552000", "114239.555000", "114239.558000", "114239.561000", "114239.564000", "114239.567000", "114239.570000", "114239.573000", "114239.576000", "114239.579000", "114239.582000", "114239.584000", "114239.588000", "114239.591000", "114239.594000", "114239.597000", "114239.600000", "114239.603000", "114239.606000", "114319.532000", "114319.535000", "114319.538000", "114319.541000", "114319.544000", "114319.547000", "114319.549000", "114319.552000", "114319.555000", "114319.558000", "114319.561000", "114319.564000", "114319.567000", "114319.570000", "114319.573000", "114319.576000", "114319.579000", "114319.582000", "114319.584000", "114319.587000", "114319.590000", "114319.593000", "114319.596000", "114319.599000", "114319.602000", "114319.605000", "114319.608000", "114359.532000", "114359.535000", "114359.538000", "114359.541000", "114359.544000", "114359.547000", "114359.550000", "114359.553000", "114359.555000", "114359.558000", "114359.561000", "114359.564000", "114359.567000", "114359.570000", "114359.573000", "114359.576000", "114359.579000", "114359.582000", "114359.585000", "114359.588000", "114359.590000", "114359.593000", "114359.596000", "114359.599000", "114359.602000", "114359.605000", "114359.608000", "114439.532000", "114439.535000", "114439.538000", "114439.541000", "114439.544000", "114439.547000", "114439.550000", "114439.553000", "114439.555000", "114439.558000", "114439.561000", "114439.564000", "114439.567000", "114439.570000", "114439.573000", "114439.576000", "114439.579000", "114439.582000", "114439.585000", "114439.588000", "114439.590000", "114439.593000", "114439.596000", "114439.599000", "114439.602000", "114439.605000", "114439.608000", "114519.532000", "114519.535000", "114519.538000", "114519.541000", "114519.544000", "114519.547000", "114519.550000", "114519.553000", "114519.555000", "114519.558000", "114519.561000", "114519.564000", "114519.567000", "114519.570000", "114519.573000", "114519.576000", "114519.579000", "114519.582000", "114519.585000", "114519.588000", "114519.591000", "114519.594000", "114519.596000", "114519.599000", "114519.602000", "114519.605000", "114519.608000", "114559.532000", "114559.535000", "114559.538000", "114559.541000", "114559.544000", "114559.547000", "114559.550000", "114559.553000", "114559.556000", "114559.559000", "114559.562000", "114559.565000", "114559.568000", "114559.570000", "114559.573000", "114559.576000", "114559.583000", "114559.586000", "114559.589000", "114559.592000", "114559.595000", "114559.598000", "114559.601000", "114559.604000", "114559.607000", "114559.610000", "114559.613000", "114639.532000", "114639.535000", "114639.538000", "114639.541000", "114639.544000", "114639.547000", "114639.550000", "114639.553000", "114639.556000", "114639.559000", "114639.562000", "114639.565000", "114639.567000", "114639.570000", "114639.573000", "114639.576000", "114639.579000", "114639.582000", "114639.585000", "114639.588000", "114639.591000", "114639.594000", "114639.597000", "114639.600000", "114639.603000", "114639.606000", "114719.532000", "114719.535000", "114719.538000", "114719.541000", "114719.544000", "114719.547000", "114719.550000", "114719.553000", "114719.556000", "114719.559000", "114719.562000", "114719.564000", "114719.567000", "114719.570000", "114719.573000", "114719.576000", "114719.579000", "114719.582000", "114719.585000", "114719.588000", "114719.590000", "114719.593000", "114719.596000", "114719.599000", "114719.602000", "114719.605000", "114719.608000", "114759.532000", "114759.535000", "114759.538000", "114759.541000", "114759.544000", "114759.547000", "114759.550000", "114759.553000", "114759.556000", "114759.559000", "114759.562000", "114759.565000", "114759.568000", "114759.570000", "114759.573000", "114759.576000", "114759.579000", "114759.582000", "114759.585000", "114759.588000", "114759.591000", "114759.594000", "114759.597000", "114759.600000", "114759.603000", "114759.605000", "114759.608000", "114809.531000", "114809.534000", "114809.537000", "114809.540000", "114809.543000", "114809.546000", "114809.549000"],
      "InstanceCreationTime": ["113859.566000", "113859.570000", "113859.573000", "113859.576000", "113859.578000", "113859.581000", "113859.584000", "113859.587000", "113859.590000", "113859.593000", "113859.596000", "113859.599000", "113859.602000", "113859.604000", "113859.607000", "113859.610000", "113859.613000", "113859.616000", "113859.620000", "113859.623000", "113859.626000", "113859.629000", "113859.632000", "113859.634000", "113859.637000", "113859.640000", "113859.643000", "113859.646000", "113859.649000", "113859.652000", "113859.655000", "113919.532000", "113919.535000", "113919.538000", "113919.541000", "113919.544000", "113919.547000", "113919.550000", "113919.552000", "113919.555000", "113919.558000", "113919.561000", "113919.564000", "113919.567000", "113919.570000", "113919.573000", "113919.576000", "113919.578000", "113919.581000", "113919.584000", "113919.587000", "113939.532000", "113939.535000", "113939.538000", "113939.541000", "113939.544000", "113939.547000", "113939.550000", "113939.552000", "113939.555000", "113939.558000", "113939.561000", "113939.574000", "113939.577000", "113939.580000", "113939.583000", "113939.586000", "113939.589000", "113939.591000", "113939.594000", "113939.597000", "113959.532000", "113959.541000", "113959.544000", "113959.547000", "113959.550000", "113959.552000", "113959.555000", "113959.558000", "113959.561000", "113959.564000", "113959.567000", "113959.570000", "113959.573000", "113959.576000", "113959.579000", "113959.582000", "113959.585000", "113959.587000", "113959.590000", "113959.593000", "114039.532000", "114039.535000", "114039.538000", "114039.541000", "114039.544000", "114039.547000", "114039.556000", "114039.559000", "114039.561000", "114039.564000", "114039.567000", "114039.570000", "114039.573000", "114039.576000", "114039.579000", "114039.582000", "114039.585000", "114039.587000", "114039.590000", "114039.593000", "114039.596000", "114039.599000", "114039.602000", "114039.605000", "114039.608000", "114039.611000", "114039.614000", "114039.617000", "114039.619000", "114039.622000", "114039.625000", "114039.628000", "114119.532000", "114119.535000", "114119.538000", "114119.541000", "114119.544000", "114119.547000", "114119.549000", "114119.552000", "114119.555000", "114119.558000", "114119.561000", "114119.564000", "114119.567000", "114119.570000", "114119.573000", "114119.575000", "114119.578000", "114119.581000", "114119.584000", "114119.587000", "114119.590000", "114119.593000", "114119.596000", "114119.599000", "114119.602000", "114119.605000", "114119.607000", "114159.532000", "114159.535000", "114159.538000", "114159.541000", "114159.544000", "114159.551000", "114159.554000", "114159.557000", "114159.560000", "114159.563000", "114159.566000", "114159.569000", "114159.572000", "114159.574000", "114159.577000", "114159.580000", "114159.583000", "114159.586000", "114159.589000", "114159.592000", "114159.595000", "114159.597000", "114159.600000", "114159.603000", "114159.606000", "114159.609000", "114159.612000", "114239.532000", "114239.535000", "114239.538000", "114239.541000", "114239.544000", "114239.547000", "114239.549000", "114239.552000", "114239.555000", "114239.558000", "114239.561000", "114239.564000", "114239.567000", "114239.570000", "114239.573000", "114239.576000", "114239.579000", "114239.582000", "114239.584000", "114239.588000", "114239.591000", "114239.594000", "114239.597000", "114239.600000", "114239.603000", "114239.606000", "114319.532000", "114319.535000", "114319.538000", "114319.541000", "114319.544000", "114319.547000", "114319.549000", "114319.552000", "114319.555000", "114319.558000", "114319.561000", "114319.564000", "114319.567000", "114319.570000", "114319.573000", "114319.576000", "114319.579000", "114319.582000", "114319.584000", "114319.587000", "114319.590000", "114319.593000", "114319.596000", "114319.599000", "114319.602000", "114319.605000", "114319.608000", "114359.532000", "114359.535000", "114359.538000", "114359.541000", "114359.544000", "114359.547000", "114359.550000", "114359.553000", "114359.555000", "114359.558000", "114359.561000", "114359.564000", "114359.567000", "114359.570000", "114359.573000", "114359.576000", "114359.579000", "114359.582000", "114359.585000", "114359.588000", "114359.590000", "114359.593000", "114359.596000", "114359.599000", "114359.602000", "114359.605000", "114359.608000", "114439.532000", "114439.535000", "114439.538000", "114439.541000", "114439.544000", "114439.547000", "114439.550000", "114439.553000", "114439.555000", "114439.558000", "114439.561000", "114439.564000", "114439.567000", "114439.570000", "114439.573000", "114439.576000", "114439.579000", "114439.582000", "114439.585000", "114439.588000", "114439.590000", "114439.593000", "114439.596000", "114439.599000", "114439.602000", "114439.605000", "114439.608000", "114519.532000", "114519.535000", "114519.538000", "114519.541000", "114519.544000", "114519.547000", "114519.550000", "114519.553000", "114519.555000", "114519.558000", "114519.561000", "114519.564000", "114519.567000", "114519.570000", "114519.573000", "114519.576000", "114519.579000", "114519.582000", "114519.585000", "114519.588000", "114519.591000", "114519.594000", "114519.596000", "114519.599000", "114519.602000", "114519.605000", "114519.608000", "114559.532000", "114559.535000", "114559.538000", "114559.541000", "114559.544000", "114559.547000", "114559.550000", "114559.553000", "114559.556000", "114559.559000", "114559.562000", "114559.565000", "114559.568000", "114559.570000", "114559.573000", "114559.576000", "114559.583000", "114559.586000", "114559.589000", "114559.592000", "114559.595000", "114559.598000", "114559.601000", "114559.604000", "114559.607000", "114559.610000", "114559.613000", "114639.532000", "114639.535000", "114639.538000", "114639.541000", "114639.544000", "114639.547000", "114639.550000", "114639.553000", "114639.556000", "114639.559000", "114639.562000", "114639.565000", "114639.567000", "114639.570000", "114639.573000", "114639.576000", "114639.579000", "114639.582000", "114639.585000", "114639.588000", "114639.591000", "114639.594000", "114639.597000", "114639.600000", "114639.603000", "114639.606000", "114719.532000", "114719.535000", "114719.538000", "114719.541000", "114719.544000", "114719.547000", "114719.550000", "114719.553000", "114719.556000", "114719.559000", "114719.562000", "114719.564000", "114719.567000", "114719.570000", "114719.573000", "114719.576000", "114719.579000", "114719.582000", "114719.585000", "114719.588000", "114719.590000", "114719.593000", "114719.596000", "114719.599000", "114719.602000", "114719.605000", "114719.608000", "114759.532000", "114759.535000", "114759.538000", "114759.541000", "114759.544000", "114759.547000", "114759.550000", "114759.553000", "114759.556000", "114759.559000", "114759.562000", "114759.565000", "114759.568000", "114759.570000", "114759.573000", "114759.576000", "114759.579000", "114759.582000", "114759.585000", "114759.588000", "114759.591000", "114759.594000", "114759.597000", "114759.600000", "114759.603000", "114759.605000", "114759.608000", "114809.531000", "114809.534000", "114809.537000", "114809.540000", "114809.543000", "114809.546000", "114809.549000"],
