{
  "AcquisitionMatrixPE": 104,
  "AcquisitionNumber": 1,
  "AcquisitionTime": "11:00:3.082500",
  "BandwidthPerPixelPhaseEncode": 17.17,
  "BaseResolution": 104,
  "BodyPartExamined": "BRAIN",
  "CoilString": "HC1-7;NC1_2",
  "ConsistencyInfo": "N4_VE11C_LATEST_20160120",
  "ConversionSoftware": "dcm2niix",
  "ConversionSoftwareVersion": "v1.0.20190902",
  "DerivedVendorReportedEchoSpacing": 0.000560011,
  "DeviceSerialNumber": "167006",
  "DwellTime": 2.1e-06,
  "EchoTime": 0.037,
  "EchoTrainLength": 104,
  "EffectiveEchoSpacing": 0.000560011,
  "FlipAngle": 52,
  "ImageComments": "Unaliased_MB4_PE3_LB",
  "ImageOrientationPatientDICOM": [0.992076, 0.1028, 0.0722294, -0.0775554, 0.953375, -0.291654],
  "ImageType": [
    "ORIGINAL",
    "PRIMARY",
    "M",
    "MB",
    "ND",
    "MOSAIC"
],
  "ImagingFrequency": 123.259,
  "InPlanePhaseEncodingDirectionDICOM": "COL",
  "InstitutionAddress": "Chemin_Queen-Mary_4565_Montreal_District_CA_H3W_1W5",
  "InstitutionName": "IUGM",
  "InstitutionalDepartmentName": "Department",
  "MRAcquisitionType": "2D",
  "MagneticFieldStrength": 3,
  "Manufacturer": "Siemens",
  "ManufacturersModelName": "Prisma_fit",
  "Modality": "MR",
  "MultibandAccelerationFactor": 4,
  "PartialFourier": 1,
  "PatientPosition": "HFS",
  "PercentPhaseFOV": 100,
  "PhaseEncodingDirection": "j",
  "PhaseEncodingSteps": 104,
  "PhaseResolution": 1,
  "PixelBandwidth": 2290,
  "ProcedureStepDescription": "games_shinobi",
  "ProtocolName": "func_task-shinobi_run-2",
  "PulseSequenceDetails": "%CustomerSeq%_cmrr_mbep2d_bold",
  "ReceiveCoilActiveElements": "HC1-7;NC1,2",
  "ReceiveCoilName": "HeadNeck_64",
  "ReconMatrixPE": 104,
  "RepetitionTime": 1.49,
  "SAR": 0.0421585,
  "ScanOptions": "FS",
  "ScanningSequence": "EP",
  "SequenceName": "epfid2d1_104",
  "SequenceVariant": "SK_SS",
  "SeriesDescription": "func_task-shinobi_run-2",
  "SeriesNumber": 11,
  "ShimSetting": [637, -7230, -8826, 644, 66, -100, 88, -14],
  "SliceThickness": 2,
  "SliceTiming": [0, 0.7825, 0.0975, 0.88, 0.195, 0.98, 0.2925, 1.0775, 0.39, 1.175, 0.49, 1.2725, 0.5875, 1.37, 0.685, 0, 0.7825, 0.0975, 0.88, 0.195, 0.98, 0.2925, 1.0775, 0.39, 1.175, 0.49, 1.2725, 0.5875, 1.37, 0.685, 0, 0.7825, 0.0975, 0.88, 0.195, 0.98, 0.2925, 1.0775, 0.39, 1.175, 0.49, 1.2725, 0.5875, 1.37, 0.685, 0, 0.7825, 0.0975, 0.88, 0.195, 0.98, 0.2925, 1.0775, 0.39, 1.175, 0.49, 1.2725, 0.5875, 1.37, 0.685],
  "SoftwareVersions": "syngo_MR_E11",
  "SpacingBetweenSlices": 2,
  "StationName": "MRC35049",
  "TaskName": "shinobi",
  "TotalReadoutTime": 0.0576811,
  "TxRefAmp": 252.066,
  "WipMemBlock": "a2c39e32-1a2a-45fc-b58f-0bd45fcdd71b||Sequence: R016 ve11c/master r/e634e98; Dec 19 2017 11:00:25 by eja",
  "dcmmeta_affine": [
    [-1.9841523170471191, -0.15511082112789154, 0.19768734276294708, 108.38932800292969],
    [-0.20559988915920258, 1.9067492485046387, -0.5674821138381958, -52.433921813964844],
    [0.1444588005542755, 0.5833077430725098, 1.907585859298706, -57.842445373535156],
    [0.0, 0.0, 0.0, 1.0]
],
  "dcmmeta_reorient_transform": [
    [0.0, -1.0, 0.0, 103.0],
    [1.0, 0.0, 0.0, 0.0],
    [0.0, 0.0, 1.0, 0.0],
    [0.0, 0.0, 0.0, 1.0]
],
  "dcmmeta_shape": [104, 104, 60, 457],
  "dcmmeta_slice_dim": 2,
  "dcmmeta_version": 0.6,
  "global": {
    "const": {
      "AcquisitionMatrix": [104, 0, 0, 104],
      "AngioFlag": "N",
      "BitsAllocated": 16,
      "BitsStored": 16,
      "BodyPartExamined": "BRAIN",
      "Columns": 832,
      "EchoNumbers": 1,
      "EchoTime": 37.0,
      "EchoTrainLength": 104,
      "FlipAngle": 52.0,
      "HighBit": 15,
      "ImageOrientationPatient": [0.99207614913339, 0.10279994359956, 0.07222939786944, -0.0775554128715, 0.95337462909293, -0.2916538608286],
      "ImagePositionPatient": [-758.18401245564, -912.85633932878, 161.97925735379],
      "ImageType": [
        "ORIGINAL",
        "PRIMARY",
        "M",
        "MB",
        "ND",
        "MOSAIC"
],
      "ImagedNucleus": "1H",
      "ImagingFrequency": 123.259364,
      "InPlanePhaseEncodingDirection": "COL",
      "MRAcquisitionType": "2D",
      "MagneticFieldStrength": 3.0,
      "Manufacturer": "SIEMENS",
      "ManufacturerModelName": "Prisma_fit",
      "Modality": "MR",
      "NumberOfAverages": 1.0,
      "NumberOfPhaseEncodingSteps": 104,
      "PercentPhaseFieldOfView": 100.0,
      "PercentSampling": 100.0,
      "PerformedProcedureStepStartTime": "104118.412000",
      "PhotometricInterpretation": "MONOCHROME2",
      "PixelBandwidth": 2290.0,
      "PixelRepresentation": 0,
      "PixelSpacing": [2.0, 2.0],
      "ProtocolName": "func_task-shinobi_run-2",
      "RepetitionTime": 1490.0,
      "Rows": 832,
      "SAR": 0.04215846063342,
      "SamplesPerPixel": 1,
      "ScanOptions": "FS",
      "ScanningSequence": "EP",
      "SequenceName": "epfid2d1_104",
      "SequenceVariant": [
        "SK",
        "SS"
],
      "SeriesDescription": "func_task-shinobi_run-2",
      "SeriesNumber": 11,
      "SeriesTime": "110123.863000",
      "SliceLocation": -29.578459788481,
      "SliceThickness": 2.0,
      "SmallestImagePixelValue": 0,
      "SoftwareVersions": "syngo MR E11",
      "SpacingBetweenSlices": 1.9999999668194,
      "SpecificCharacterSet": "ISO_IR 100",
      "StudyID": "1",
      "StudyTime": "104118.337000",
      "TransmitCoilName": "Body",
      "VariableFlipAngleFlag": "N",
      "WindowCenterWidthExplanation": "Algo1",
      "dBdt": 0.0},
    "slices": {}
  },
  "time": {
    "samples": {
      "AcquisitionNumber": [1, 2, 3, 4, 5, 6, 7, 8, 9, 10, 11, 12, 13, 14, 15, 16, 17, 18, 19, 20, 21, 22, 23, 24, 25, 26, 27, 28, 29, 30, 31, 32, 33, 34, 35, 36, 37, 38, 39, 40, 41, 42, 43, 44, 45, 46, 47, 48, 49, 50, 51, 52, 53, 54, 55, 56, 57, 58, 59, 60, 61, 62, 63, 64, 65, 66, 67, 68, 69, 70, 71, 72, 73, 74, 75, 76, 77, 78, 79, 80, 81, 82, 83, 84, 85, 86, 87, 88, 89, 90, 91, 92, 93, 94, 95, 96, 97, 98, 99, 100, 101, 102, 103, 104, 105, 106, 107, 108, 109, 110, 111, 112, 113, 114, 115, 116, 117, 118, 119, 120, 121, 122, 123, 124, 125, 126, 127, 128, 129, 130, 131, 132, 133, 134, 135, 136, 137, 138, 139, 140, 141, 142, 143, 144, 145, 146, 147, 148, 149, 150, 151, 152, 153, 154, 155, 156, 157, 158, 159, 160, 161, 162, 163, 164, 165, 166, 167, 168, 169, 170, 171, 172, 173, 174, 175, 176, 177, 178, 179, 180, 181, 182, 183, 184, 185, 186, 187, 188, 189, 190, 191, 192, 193, 194, 195, 196, 197, 198, 199, 200, 201, 202, 203, 204, 205, 206, 207, 208, 209, 210, 211, 212, 213, 214, 215, 216, 217, 218, 219, 220, 221, 222, 223, 224, 225, 226, 227, 228, 229, 230, 231, 232, 233, 234, 235, 236, 237, 238, 239, 240, 241, 242, 243, 244, 245, 246, 247, 248, 249, 250, 251, 252, 253, 254, 255, 256, 257, 258, 259, 260, 261, 262, 263, 264, 265, 266, 267, 268, 269, 270, 271, 272, 273, 274, 275, 276, 277, 278, 279, 280, 281, 282, 283, 284, 285, 286, 287, 288, 289, 290, 291, 292, 293, 294, 295, 296, 297, 298, 299, 300, 301, 302, 303, 304, 305, 306, 307, 308, 309, 310, 311, 312, 313, 314, 315, 316, 317, 318, 319, 320, 321, 322, 323, 324, 325, 326, 327, 328, 329, 330, 331, 332, 333, 334, 335, 336, 337, 338, 339, 340, 341, 342, 343, 344, 345, 346, 347, 348, 349, 350, 351, 352, 353, 354, 355, 356, 357, 358, 359, 360, 361, 362, 363, 364, 365, 366, 367, 368, 369, 370, 371, 372, 373, 374, 375, 376, 377, 378, 379, 380, 381, 382, 383, 384, 385, 386, 387, 388, 389, 390, 391, 392, 393, 394, 395, 396, 397, 398, 399, 400, 401, 402, 403, 404, 405, 406, 407, 408, 409, 410, 411, 412, 413, 414, 415, 416, 417, 418, 419, 420, 421, 422, 423, 424, 425, 426, 427, 428, 429, 430, 431, 432, 433, 434, 435, 436, 437, 438, 439, 440, 441, 442, 443, 444, 445, 446, 447, 448, 449, 450, 451, 452, 453, 454, 455, 456, 457],
      "AcquisitionTime": ["110003.082500", "110004.572500", "110006.062500", "110007.552500", "110009.042500", "110010.532500", "110012.022500", "110013.512500", "110015.002500", "110016.492500", "110017.982500", "110019.472500", "110020.962500", "110022.452500", "110023.942500", "110025.432500", "110026.922500", "110028.412500", "110029.902500", "110031.392500", "110032.882500", "110034.372500", "110035.862500", "110037.352500", "110038.842500", "110040.332500", "110041.822500", "110043.312500", "110044.802500", "110046.292500", "110047.782500", "110049.272500", "110050.762500", "110052.252500", "110053.742500", "110055.232500", "110056.722500", "110058.212500", "110059.702500", "110101.192500", "110102.682500", "110104.172500", "110105.662500", "110107.152500", "110108.642500", "110110.132500", "110111.622500", "110113.112500", "110114.602500", "110116.092500", "110117.582500", "110119.072500", "110120.562500", "110122.052500", "110123.542500", "110125.032500", "110126.522500", "110128.012500", "110129.502500", "110130.992500", "110132.482500", "110133.972500", "110135.462500", "110136.952500", "110138.442500", "110139.932500", "110141.422500", "110142.912500", "110144.402500", "110145.892500", "110147.382500", "110148.872500", "110150.362500", "110151.852500", "110153.342500", "110154.832500", "110156.322500", "110157.812500", "110159.302500", "110200.792500", "110202.282500", "110203.772500", "110205.262500", "110206.752500", "110208.242500", "110209.732500", "110211.222500", "110212.712500", "110214.202500", "110215.692500", "110217.182500", "110218.672500", "110220.162500", "110221.652500", "110223.142500", "110224.632500", "110226.122500", "110227.612500", "110229.102500", "110230.592500", "110232.082500", "110233.572500", "110235.062500", "110236.552500", "110238.042500", "110239.532500", "110241.022500", "110242.512500", "110244.002500", "110245.492500", "110246.982500", "110248.472500", "110249.962500", "110251.452500", "110252.942500", "110254.432500", "110255.922500", "110257.412500", "110258.902500", "110300.392500", "110301.882500", "110303.372500", "110304.862500", "110306.352500", "110307.842500", "110309.332500", "110310.822500", "110312.312500", "110313.802500", "110315.292500", "110316.782500", "110318.272500", "110319.762500", "110321.252500", "110322.742500", "110324.232500", "110325.722500", "110327.212500", "110328.702500", "110330.192500", "110331.682500", "110333.172500", "110334.662500", "110336.152500", "110337.642500", "110339.132500", "110340.622500", "110342.112500", "110343.602500", "110345.092500", "110346.582500", "110348.072500", "110349.562500", "110351.052500", "110352.542500", "110354.032500", "110355.522500", "110357.012500", "110358.502500", "110359.992500", "110401.482500", "110402.972500", "110404.462500", "110405.952500", "110407.442500", "110408.932500", "110410.422500", "110411.912500", "110413.402500", "110414.892500", "110416.382500", "110417.872500", "110419.362500", "110420.852500", "110422.342500", "110423.832500", "110425.322500", "110426.812500", "110428.302500", "110429.792500", "110431.282500", "110432.772500", "110434.262500", "110435.752500", "110437.242500", "110438.732500", "110440.222500", "110441.712500", "110443.202500", "110444.692500", "110446.182500", "110447.672500", "110449.162500", "110450.652500", "110452.142500", "110453.632500", "110455.122500", "110456.612500", "110458.102500", "110459.592500", "110501.082500", "110502.572500", "110504.062500", "110505.552500", "110507.042500", "110508.532500", "110510.022500", "110511.512500", "110513.002500", "110514.492500", "110515.982500", "110517.472500", "110518.962500", "110520.452500", "110521.942500", "110523.432500", "110524.922500", "110526.412500", "110527.902500", "110529.392500", "110530.882500", "110532.372500", "110533.862500", "110535.352500", "110536.842500", "110538.332500", "110539.822500", "110541.312500", "110542.802500", "110544.292500", "110545.782500", "110547.272500", "110548.762500", "110550.252500", "110551.742500", "110553.232500", "110554.722500", "110556.212500", "110557.702500", "110559.192500", "110600.682500", "110602.172500", "110603.662500", "110605.152500", "110606.642500", "110608.132500", "110609.622500", "110611.112500", "110612.602500", "110614.092500", "110615.582500", "110617.072500", "110618.562500", "110620.052500", "110621.542500", "110623.032500", "110624.522500", "110626.012500", "110627.502500", "110628.992500", "110630.482500", "110631.972500", "110633.462500", "110634.952500", "110636.442500", "110637.932500", "110639.422500", "110640.912500", "110642.402500", "110643.892500", "110645.382500", "110646.872500", "110648.362500", "110649.852500", "110651.342500", "110652.832500", "110654.322500", "110655.812500", "110657.302500", "110658.792500", "110700.282500", "110701.772500", "110703.262500", "110704.752500", "110706.242500", "110707.732500", "110709.222500", "110710.712500", "110712.202500", "110713.692500", "110715.182500", "110716.672500", "110718.162500", "110719.652500", "110721.142500", "110722.632500", "110724.122500", "110725.612500", "110727.102500", "110728.592500", "110730.082500", "110731.572500", "110733.062500", "110734.552500", "110736.042500", "110737.532500", "110739.022500", "110740.512500", "110742.002500", "110743.492500", "110744.982500", "110746.472500", "110747.962500", "110749.452500", "110750.942500", "110752.432500", "110753.922500", "110755.412500", "110756.902500", "110758.392500", "110759.882500", "110801.372500", "110802.862500", "110804.352500", "110805.842500", "110807.332500", "110808.822500", "110810.312500", "110811.802500", "110813.292500", "110814.782500", "110816.272500", "110817.762500", "110819.252500", "110820.742500", "110822.232500", "110823.722500", "110825.212500", "110826.702500", "110828.192500", "110829.682500", "110831.172500", "110832.662500", "110834.152500", "110835.642500", "110837.132500", "110838.622500", "110840.112500", "110841.602500", "110843.092500", "110844.582500", "110846.072500", "110847.562500", "110849.052500", "110850.542500", "110852.032500", "110853.522500", "110855.012500", "110856.502500", "110857.992500", "110859.482500", "110900.972500", "110902.462500", "110903.952500", "110905.442500", "110906.932500", "110908.422500", "110909.912500", "110911.402500", "110912.892500", "110914.382500", "110915.872500", "110917.362500", "110918.852500", "110920.342500", "110921.832500", "110923.322500", "110924.812500", "110926.302500", "110927.792500", "110929.282500", "110930.772500", "110932.262500", "110933.752500", "110935.242500", "110936.732500", "110938.222500", "110939.712500", "110941.202500", "110942.692500", "110944.182500", "110945.672500", "110947.162500", "110948.652500", "110950.142500", "110951.632500", "110953.122500", "110954.612500", "110956.102500", "110957.592500", "110959.082500", "111000.572500", "111002.062500", "111003.552500", "111005.042500", "111006.532500", "111008.022500", "111009.512500", "111011.002500", "111012.492500", "111013.982500", "111015.472500", "111016.962500", "111018.452500", "111019.942500", "111021.432500", "111022.922500", "111024.412500", "111025.902500", "111027.392500", "111028.882500", "111030.372500", "111031.862500", "111033.352500", "111034.842500", "111036.332500", "111037.822500", "111039.312500", "111040.802500", "111042.292500", "111043.782500", "111045.272500", "111046.762500", "111048.252500", "111049.742500", "111051.232500", "111052.722500", "111054.212500", "111055.702500", "111057.192500", "111058.682500", "111100.172500", "111101.662500", "111103.152500", "111104.642500", "111106.132500", "111107.622500", "111109.112500", "111110.602500", "111112.092500", "111113.582500", "111115.072500", "111116.562500", "111118.052500", "111119.542500", "111121.032500", "111122.522500"],
      "ContentTime": ["110123.865000", "110123.869000", "110123.872000", "110123.880000", "110123.883000", "110123.891000", "110123.893000", "110123.896000", "110123.899000", "110123.902000", "110123.905000", "110123.908000", "110123.911000", "110123.914000", "110123.917000", "110123.919000", "110123.922000", "110123.925000", "110123.928000", "110123.931000", "110123.934000", "110123.938000", "110123.941000", "110123.944000", "110123.946000", "110123.949000", "110143.835000", "110143.838000", "110143.841000", "110143.844000", "110143.847000", "110143.849000", "110143.852000", "110143.855000", "110143.858000", "110143.861000", "110143.864000", "110143.867000", "110143.870000", "110143.872000", "110143.875000", "110143.878000", "110143.881000", "110143.884000", "110143.887000", "110143.899000", "110203.835000", "110203.838000", "110203.841000", "110203.844000", "110203.847000", "110203.850000", "110203.852000", "110203.855000", "110203.858000", "110203.861000", "110203.864000", "110203.867000", "110203.870000", "110203.873000", "110203.875000", "110203.878000", "110203.881000", "110203.884000", "110203.887000", "110203.890000", "110223.834000", "110223.837000", "110223.840000", "110223.843000", "110223.846000", "110223.849000", "110223.851000", "110223.854000", "110223.857000", "110223.860000", "110223.863000", "110223.866000", "110223.869000", "110223.872000", "110223.875000", "110223.877000", "110223.880000", "110223.883000", "110223.886000", "110223.889000", "110243.835000", "110243.838000", "110243.841000", "110243.844000", "110243.847000", "110243.850000", "110243.852000", "110243.855000", "110243.858000", "110243.861000", "110243.864000", "110243.867000", "110243.870000", "110243.873000", "110243.876000", "110243.878000", "110243.881000", "110243.884000", "110243.887000", "110243.890000", "110243.893000", "110323.835000", "110323.838000", "110323.841000", "110323.844000", "110323.855000", "110323.858000", "110323.861000", "110323.863000", "110323.866000", "110323.869000", "110323.872000", "110323.875000", "110323.878000", "110323.881000", "110323.884000", "110323.886000", "110323.889000", "110323.892000", "110323.895000", "110323.898000", "110323.901000", "110323.904000", "110323.907000", "110323.910000", "110323.912000", "110323.915000", "110323.918000", "110403.835000", "110403.838000", "110403.841000", "110403.844000", "110403.847000", "110403.850000", "110403.853000", "110403.856000", "110403.859000", "110403.861000", "110403.864000", "110403.867000", "110403.870000", "110403.873000", "110403.876000", "110403.879000", "110403.882000", "110403.884000", "110403.887000", "110403.890000", "110403.893000", "110403.896000", "110403.899000", "110403.902000", "110403.905000", "110403.908000", "110403.910000", "110443.835000", "110443.838000", "110443.841000", "110443.844000", "110443.847000", "110443.850000", "110443.853000", "110443.856000", "110443.859000", "110443.862000", "110443.864000", "110443.867000", "110443.870000", "110443.873000", "110443.876000", "110443.879000", "110443.882000", "110443.885000", "110443.887000", "110443.890000", "110443.893000", "110443.912000", "110443.915000", "110443.918000", "110443.921000", "110443.924000", "110443.927000", "110503.835000", "110503.838000", "110503.841000", "110503.844000", "110503.847000", "110503.850000", "110503.852000", "110503.855000", "110503.858000", "110503.861000", "110503.864000", "110503.867000", "110503.870000", "110543.835000", "110543.838000", "110543.841000", "110543.844000", "110543.847000", "110543.850000", "110543.852000", "110543.855000", "110543.858000", "110543.861000", "110543.869000", "110543.872000", "110543.875000", "110543.878000", "110543.880000", "110543.883000", "110543.886000", "110543.889000", "110543.892000", "110543.895000", "110543.898000", "110543.901000", "110543.904000", "110543.907000", "110543.910000", "110543.912000", "110543.915000", "110623.835000", "110623.838000", "110623.841000", "110623.844000", "110623.847000", "110623.850000", "110623.853000", "110623.856000", "110623.859000", "110623.862000", "110623.864000", "110623.867000", "110623.870000", "110623.873000", "110623.876000", "110623.879000", "110623.882000", "110623.885000", "110623.888000", "110623.891000", "110623.893000", "110623.896000", "110623.899000", "110623.902000", "110623.905000", "110623.908000", "110623.911000", "110703.835000", "110703.838000", "110703.841000", "110703.844000", "110703.847000", "110703.850000", "110703.853000", "110703.856000", "110703.859000", "110703.861000", "110703.864000", "110703.867000", "110703.870000", "110703.873000", "110703.876000", "110703.879000", "110703.882000", "110703.885000", "110703.888000", "110703.891000", "110703.893000", "110703.896000", "110703.899000", "110703.902000", "110703.905000", "110703.908000", "110703.911000", "110743.835000", "110743.838000", "110743.841000", "110743.844000", "110743.847000", "110743.850000", "110743.853000", "110743.855000", "110743.858000", "110743.861000", "110743.864000", "110743.867000", "110743.870000", "110743.873000", "110743.876000", "110743.879000", "110743.883000", "110743.886000", "110743.889000", "110743.892000", "110743.895000", "110743.898000", "110743.900000", "110743.903000", "110743.906000", "110743.909000", "110823.835000", "110823.838000", "110823.841000", "110823.844000", "110823.851000", "110823.854000", "110823.857000", "110823.860000", "110823.863000", "110823.866000", "110823.868000", "110823.871000", "110823.874000", "110823.877000", "110823.880000", "110823.883000", "110823.886000", "110823.889000", "110823.892000", "110823.894000", "110823.897000", "110823.900000", "110823.903000", "110823.906000", "110823.909000", "110823.912000", "110823.915000", "110903.835000", "110903.838000", "110903.841000", "110903.844000", "110903.847000", "110903.850000", "110903.853000", "110903.856000", "110903.859000", "110903.861000", "110903.864000", "110903.867000", "110903.870000", "110903.873000", "110903.876000", "110903.879000", "110903.882000", "110903.885000", "110903.888000", "110903.890000", "110903.893000", "110903.896000", "110903.899000", "110903.902000", "110903.905000", "110903.908000", "110903.911000", "110943.835000", "110943.838000", "110943.841000", "110943.858000", "110943.861000", "110943.864000", "110943.867000", "110943.870000", "110943.873000", "110943.876000", "110943.878000", "110943.881000", "110943.884000", "110943.887000", "110943.890000", "110943.893000", "110943.896000", "110943.899000", "110943.902000", "110943.905000", "110943.907000", "110943.910000", "110943.913000", "110943.916000", "110943.919000", "110943.922000", "110943.925000", "111023.835000", "111023.838000", "111023.841000", "111023.844000", "111023.847000", "111023.850000", "111023.853000", "111023.856000", "111023.858000", "111023.861000", "111023.864000", "111023.867000", "111023.870000", "111023.873000", "111023.876000", "111023.879000", "111023.882000", "111023.885000", "111023.888000", "111023.890000", "111023.893000", "111023.896000", "111023.899000", "111023.902000", "111023.905000", "111023.908000", "111023.911000", "111103.835000", "111103.838000", "111103.841000", "111103.844000", "111103.847000", "111103.850000", "111103.853000", "111103.855000", "111103.858000", "111103.861000", "111103.864000", "111103.867000", "111103.870000", "111103.873000", "111103.876000", "111103.879000", "111103.882000", "111103.885000", "111103.888000", "111103.891000", "111103.893000", "111103.896000", "111103.899000", "111103.902000", "111103.905000", "111103.908000", "111103.911000", "111125.730000", "111125.733000", "111125.736000", "111125.739000", "111125.742000", "111125.745000", "111125.748000", "111125.751000", "111125.754000", "111125.757000", "111125.759000", "111125.762000", "111125.765000", "111125.768000"],
