{
  "AcquisitionMatrixPE": 104,
  "AcquisitionNumber": 1,
  "AcquisitionTime": "10:47:11.217500",
  "BandwidthPerPixelPhaseEncode": 17.17,
  "BaseResolution": 104,
  "BodyPartExamined": "BRAIN",
  "CoilString": "HC1-7;NC1_2",
  "ConsistencyInfo": "N4_VE11C_LATEST_20160120",
  "ConversionSoftware": "dcm2niix",
  "ConversionSoftwareVersion": "v1.0.20190902",
  "DerivedVendorReportedEchoSpacing": 0.000560011,
  "DeviceSerialNumber": "167006",
  "DwellTime": 2.1e-06,
  "EchoTime": 0.037,
  "EchoTrainLength": 104,
  "EffectiveEchoSpacing": 0.000560011,
  "FlipAngle": 52,
  "ImageComments": "Unaliased_MB4_PE3_LB",
  "ImageOrientationPatientDICOM": [0.992076, 0.1028, 0.0722294, -0.0775554, 0.953375, -0.291654],
  "ImageType": [
    "ORIGINAL",
    "PRIMARY",
    "M",
    "MB",
    "ND",
    "MOSAIC"
],
  "ImagingFrequency": 123.259,
  "InPlanePhaseEncodingDirectionDICOM": "COL",
  "InstitutionAddress": "Chemin_Queen-Mary_4565_Montreal_District_CA_H3W_1W5",
  "InstitutionName": "IUGM",
  "InstitutionalDepartmentName": "Department",
  "MRAcquisitionType": "2D",
  "MagneticFieldStrength": 3,
  "Manufacturer": "Siemens",
  "ManufacturersModelName": "Prisma_fit",
  "Modality": "MR",
  "MultibandAccelerationFactor": 4,
  "PartialFourier": 1,
  "PatientPosition": "HFS",
  "PercentPhaseFOV": 100,
  "PhaseEncodingDirection": "j",
  "PhaseEncodingSteps": 104,
  "PhaseResolution": 1,
  "PixelBandwidth": 2290,
  "ProcedureStepDescription": "games_shinobi",
  "ProtocolName": "func_task-shinobi_run-1",
  "PulseSequenceDetails": "%CustomerSeq%_cmrr_mbep2d_bold",
  "ReceiveCoilActiveElements": "HC1-7;NC1,2",
  "ReceiveCoilName": "HeadNeck_64",
  "ReconMatrixPE": 104,
  "RepetitionTime": 1.49,
  "SAR": 0.0421585,
  "ScanOptions": "FS",
  "ScanningSequence": "EP",
  "SequenceName": "epfid2d1_104",
  "SequenceVariant": "SK_SS",
  "SeriesDescription": "func_task-shinobi_run-1",
  "SeriesNumber": 9,
  "ShimSetting": [637, -7230, -8826, 644, 66, -100, 88, -14],
  "SliceThickness": 2,
  "SliceTiming": [0, 0.785, 0.0975, 0.8825, 0.195, 0.98, 0.295, 1.0775, 0.3925, 1.175, 0.49, 1.275, 0.5875, 1.3725, 0.685, 0, 0.785, 0.0975, 0.8825, 0.195, 0.98, 0.295, 1.0775, 0.3925, 1.175, 0.49, 1.275, 0.5875, 1.3725, 0.685, 0, 0.785, 0.0975, 0.8825, 0.195, 0.98, 0.295, 1.0775, 0.3925, 1.175, 0.49, 1.275, 0.5875, 1.3725, 0.685, 0, 0.785, 0.0975, 0.8825, 0.195, 0.98, 0.295, 1.0775, 0.3925, 1.175, 0.49, 1.275, 0.5875, 1.3725, 0.685],
  "SoftwareVersions": "syngo_MR_E11",
  "SpacingBetweenSlices": 2,
  "StationName": "MRC35049",
  "TaskName": "shinobi",
  "TotalReadoutTime": 0.0576811,
  "TxRefAmp": 252.066,
  "WipMemBlock": "84ea52ec-11e9-4e9b-8343-04961ac7e9bc||Sequence: R016 ve11c/master r/e634e98; Dec 19 2017 11:00:25 by eja",
  "dcmmeta_affine": [
    [-1.9841523170471191, -0.15511082112789154, 0.19768734276294708, 108.38932800292969],
    [-0.20559988915920258, 1.9067492485046387, -0.5674821138381958, -52.433921813964844],
    [0.1444588005542755, 0.5833077430725098, 1.907585859298706, -57.842445373535156],
    [0.0, 0.0, 0.0, 1.0]
],
  "dcmmeta_reorient_transform": [
    [0.0, -1.0, 0.0, 103.0],
    [1.0, 0.0, 0.0, 0.0],
    [0.0, 0.0, 1.0, 0.0],
    [0.0, 0.0, 0.0, 1.0]
],
  "dcmmeta_shape": [104, 104, 60, 489],
  "dcmmeta_slice_dim": 2,
  "dcmmeta_version": 0.6,
  "global": {
    "const": {
      "AcquisitionMatrix": [104, 0, 0, 104],
      "AngioFlag": "N",
      "BitsAllocated": 16,
      "BitsStored": 16,
      "BodyPartExamined": "BRAIN",
      "Columns": 832,
      "EchoNumbers": 1,
      "EchoTime": 37.0,
      "EchoTrainLength": 104,
      "FlipAngle": 52.0,
      "HighBit": 15,
      "ImageOrientationPatient": [0.99207614913339, 0.10279994359956, 0.07222939786944, -0.0775554128715, 0.95337462909293, -0.2916538608286],
      "ImagePositionPatient": [-758.18401245564, -912.85633932878, 161.97925735379],
      "ImageType": [
        "ORIGINAL",
        "PRIMARY",
        "M",
        "MB",
        "ND",
        "MOSAIC"
],
      "ImagedNucleus": "1H",
      "ImagingFrequency": 123.259357,
      "InPlanePhaseEncodingDirection": "COL",
      "MRAcquisitionType": "2D",
      "MagneticFieldStrength": 3.0,
      "Manufacturer": "SIEMENS",
      "ManufacturerModelName": "Prisma_fit",
      "Modality": "MR",
      "NumberOfAverages": 1.0,
      "NumberOfPhaseEncodingSteps": 104,
      "PercentPhaseFieldOfView": 100.0,
      "PercentSampling": 100.0,
      "PerformedProcedureStepStartTime": "104118.412000",
      "PhotometricInterpretation": "MONOCHROME2",
      "PixelBandwidth": 2290.0,
      "PixelRepresentation": 0,
      "PixelSpacing": [2.0, 2.0],
      "ProtocolName": "func_task-shinobi_run-1",
      "RepetitionTime": 1490.0,
      "Rows": 832,
      "SAR": 0.04215846063342,
      "SamplesPerPixel": 1,
      "ScanOptions": "FS",
      "ScanningSequence": "EP",
      "SequenceName": "epfid2d1_104",
      "SequenceVariant": [
        "SK",
        "SS"
],
      "SeriesDescription": "func_task-shinobi_run-1",
      "SeriesNumber": 9,
      "SeriesTime": "104828.603000",
      "SliceLocation": -29.578459788481,
      "SliceThickness": 2.0,
      "SmallestImagePixelValue": 0,
      "SoftwareVersions": "syngo MR E11",
      "SpacingBetweenSlices": 1.9999999668194,
      "SpecificCharacterSet": "ISO_IR 100",
      "StudyID": "1",
      "StudyTime": "104118.337000",
      "TransmitCoilName": "Body",
      "VariableFlipAngleFlag": "N",
      "WindowCenterWidthExplanation": "Algo1",
      "dBdt": 0.0},
    "slices": {}
  },
  "time": {
    "samples": {
      "AcquisitionNumber": [1, 2, 3, 4, 5, 6, 7, 8, 9, 10, 11, 12, 13, 14, 15, 16, 17, 18, 19, 20, 21, 22, 23, 24, 25, 26, 27, 28, 29, 30, 31, 32, 33, 34, 35, 36, 37, 38, 39, 40, 41, 42, 43, 44, 45, 46, 47, 48, 49, 50, 51, 52, 53, 54, 55, 56, 57, 58, 59, 60, 61, 62, 63, 64, 65, 66, 67, 68, 69, 70, 71, 72, 73, 74, 75, 76, 77, 78, 79, 80, 81, 82, 83, 84, 85, 86, 87, 88, 89, 90, 91, 92, 93, 94, 95, 96, 97, 98, 99, 100, 101, 102, 103, 104, 105, 106, 107, 108, 109, 110, 111, 112, 113, 114, 115, 116, 117, 118, 119, 120, 121, 122, 123, 124, 125, 126, 127, 128, 129, 130, 131, 132, 133, 134, 135, 136, 137, 138, 139, 140, 141, 142, 143, 144, 145, 146, 147, 148, 149, 150, 151, 152, 153, 154, 155, 156, 157, 158, 159, 160, 161, 162, 163, 164, 165, 166, 167, 168, 169, 170, 171, 172, 173, 174, 175, 176, 177, 178, 179, 180, 181, 182, 183, 184, 185, 186, 187, 188, 189, 190, 191, 192, 193, 194, 195, 196, 197, 198, 199, 200, 201, 202, 203, 204, 205, 206, 207, 208, 209, 210, 211, 212, 213, 214, 215, 216, 217, 218, 219, 220, 221, 222, 223, 224, 225, 226, 227, 228, 229, 230, 231, 232, 233, 234, 235, 236, 237, 238, 239, 240, 241, 242, 243, 244, 245, 246, 247, 248, 249, 250, 251, 252, 253, 254, 255, 256, 257, 258, 259, 260, 261, 262, 263, 264, 265, 266, 267, 268, 269, 270, 271, 272, 273, 274, 275, 276, 277, 278, 279, 280, 281, 282, 283, 284, 285, 286, 287, 288, 289, 290, 291, 292, 293, 294, 295, 296, 297, 298, 299, 300, 301, 302, 303, 304, 305, 306, 307, 308, 309, 310, 311, 312, 313, 314, 315, 316, 317, 318, 319, 320, 321, 322, 323, 324, 325, 326, 327, 328, 329, 330, 331, 332, 333, 334, 335, 336, 337, 338, 339, 340, 341, 342, 343, 344, 345, 346, 347, 348, 349, 350, 351, 352, 353, 354, 355, 356, 357, 358, 359, 360, 361, 362, 363, 364, 365, 366, 367, 368, 369, 370, 371, 372, 373, 374, 375, 376, 377, 378, 379, 380, 381, 382, 383, 384, 385, 386, 387, 388, 389, 390, 391, 392, 393, 394, 395, 396, 397, 398, 399, 400, 401, 402, 403, 404, 405, 406, 407, 408, 409, 410, 411, 412, 413, 414, 415, 416, 417, 418, 419, 420, 421, 422, 423, 424, 425, 426, 427, 428, 429, 430, 431, 432, 433, 434, 435, 436, 437, 438, 439, 440, 441, 442, 443, 444, 445, 446, 447, 448, 449, 450, 451, 452, 453, 454, 455, 456, 457, 458, 459, 460, 461, 462, 463, 464, 465, 466, 467, 468, 469, 470, 471, 472, 473, 474, 475, 476, 477, 478, 479, 480, 481, 482, 483, 484, 485, 486, 487, 488, 489],
      "AcquisitionTime": ["104711.217500", "104712.707500", "104714.197500", "104715.687500", "104717.177500", "104718.667500", "104720.157500", "104721.647500", "104723.137500", "104724.627500", "104726.117500", "104727.607500", "104729.097500", "104730.587500", "104732.077500", "104733.567500", "104735.057500", "104736.547500", "104738.037500", "104739.527500", "104741.017500", "104742.507500", "104743.997500", "104745.487500", "104746.977500", "104748.467500", "104749.957500", "104751.447500", "104752.937500", "104754.427500", "104755.917500", "104757.407500", "104758.897500", "104800.387500", "104801.877500", "104803.367500", "104804.857500", "104806.347500", "104807.837500", "104809.327500", "104810.817500", "104812.307500", "104813.797500", "104815.287500", "104816.777500", "104818.267500", "104819.757500", "104821.247500", "104822.737500", "104824.227500", "104825.717500", "104827.207500", "104828.697500", "104830.187500", "104831.677500", "104833.167500", "104834.657500", "104836.147500", "104837.637500", "104839.127500", "104840.617500", "104842.107500", "104843.597500", "104845.087500", "104846.577500", "104848.067500", "104849.557500", "104851.047500", "104852.537500", "104854.027500", "104855.517500", "104857.007500", "104858.497500", "104859.987500", "104901.477500", "104902.967500", "104904.457500", "104905.947500", "104907.437500", "104908.927500", "104910.417500", "104911.907500", "104913.397500", "104914.887500", "104916.377500", "104917.867500", "104919.357500", "104920.847500", "104922.337500", "104923.827500", "104925.317500", "104926.807500", "104928.297500", "104929.787500", "104931.277500", "104932.767500", "104934.257500", "104935.747500", "104937.237500", "104938.727500", "104940.217500", "104941.707500", "104943.197500", "104944.687500", "104946.177500", "104947.667500", "104949.157500", "104950.647500", "104952.137500", "104953.627500", "104955.117500", "104956.607500", "104958.097500", "104959.587500", "105001.077500", "105002.567500", "105004.057500", "105005.547500", "105007.037500", "105008.527500", "105010.017500", "105011.507500", "105012.997500", "105014.487500", "105015.977500", "105017.467500", "105018.957500", "105020.447500", "105021.937500", "105023.427500", "105024.917500", "105026.407500", "105027.897500", "105029.387500", "105030.877500", "105032.367500", "105033.857500", "105035.347500", "105036.837500", "105038.327500", "105039.817500", "105041.307500", "105042.797500", "105044.287500", "105045.777500", "105047.267500", "105048.757500", "105050.247500", "105051.737500", "105053.227500", "105054.717500", "105056.207500", "105057.697500", "105059.187500", "105100.677500", "105102.167500", "105103.657500", "105105.147500", "105106.637500", "105108.127500", "105109.617500", "105111.107500", "105112.597500", "105114.087500", "105115.577500", "105117.067500", "105118.557500", "105120.047500", "105121.537500", "105123.027500", "105124.517500", "105126.007500", "105127.497500", "105128.987500", "105130.477500", "105131.967500", "105133.457500", "105134.947500", "105136.437500", "105137.927500", "105139.417500", "105140.907500", "105142.397500", "105143.887500", "105145.377500", "105146.867500", "105148.357500", "105149.847500", "105151.337500", "105152.827500", "105154.317500", "105155.807500", "105157.297500", "105158.787500", "105200.277500", "105201.767500", "105203.257500", "105204.747500", "105206.237500", "105207.727500", "105209.217500", "105210.707500", "105212.197500", "105213.687500", "105215.177500", "105216.667500", "105218.157500", "105219.647500", "105221.137500", "105222.627500", "105224.117500", "105225.607500", "105227.097500", "105228.587500", "105230.077500", "105231.567500", "105233.057500", "105234.547500", "105236.037500", "105237.527500", "105239.017500", "105240.507500", "105241.997500", "105243.487500", "105244.977500", "105246.467500", "105247.957500", "105249.447500", "105250.937500", "105252.427500", "105253.917500", "105255.407500", "105256.897500", "105258.387500", "105259.877500", "105301.367500", "105302.857500", "105304.347500", "105305.837500", "105307.327500", "105308.817500", "105310.307500", "105311.797500", "105313.287500", "105314.777500", "105316.267500", "105317.757500", "105319.247500", "105320.737500", "105322.227500", "105323.717500", "105325.207500", "105326.697500", "105328.187500", "105329.677500", "105331.167500", "105332.657500", "105334.147500", "105335.637500", "105337.127500", "105338.617500", "105340.107500", "105341.597500", "105343.087500", "105344.577500", "105346.067500", "105347.557500", "105349.047500", "105350.537500", "105352.027500", "105353.517500", "105355.007500", "105356.497500", "105357.987500", "105359.477500", "105400.967500", "105402.457500", "105403.947500", "105405.437500", "105406.927500", "105408.417500", "105409.907500", "105411.397500", "105412.887500", "105414.377500", "105415.867500", "105417.357500", "105418.847500", "105420.337500", "105421.827500", "105423.317500", "105424.807500", "105426.297500", "105427.787500", "105429.277500", "105430.767500", "105432.257500", "105433.747500", "105435.237500", "105436.727500", "105438.217500", "105439.707500", "105441.197500", "105442.687500", "105444.177500", "105445.667500", "105447.157500", "105448.647500", "105450.137500", "105451.627500", "105453.117500", "105454.607500", "105456.097500", "105457.587500", "105459.077500", "105500.567500", "105502.057500", "105503.547500", "105505.037500", "105506.527500", "105508.017500", "105509.507500", "105510.997500", "105512.487500", "105513.977500", "105515.467500", "105516.957500", "105518.447500", "105519.937500", "105521.427500", "105522.917500", "105524.407500", "105525.897500", "105527.387500", "105528.877500", "105530.367500", "105531.857500", "105533.347500", "105534.837500", "105536.327500", "105537.817500", "105539.307500", "105540.797500", "105542.287500", "105543.777500", "105545.267500", "105546.757500", "105548.247500", "105549.737500", "105551.227500", "105552.717500", "105554.207500", "105555.697500", "105557.187500", "105558.677500", "105600.167500", "105601.657500", "105603.147500", "105604.637500", "105606.127500", "105607.617500", "105609.107500", "105610.597500", "105612.087500", "105613.577500", "105615.067500", "105616.557500", "105618.047500", "105619.537500", "105621.027500", "105622.517500", "105624.007500", "105625.497500", "105626.987500", "105628.477500", "105629.967500", "105631.457500", "105632.947500", "105634.437500", "105635.927500", "105637.417500", "105638.907500", "105640.397500", "105641.887500", "105643.377500", "105644.867500", "105646.357500", "105647.847500", "105649.337500", "105650.827500", "105652.317500", "105653.807500", "105655.297500", "105656.787500", "105658.277500", "105659.767500", "105701.257500", "105702.747500", "105704.237500", "105705.727500", "105707.217500", "105708.707500", "105710.197500", "105711.687500", "105713.177500", "105714.667500", "105716.157500", "105717.647500", "105719.137500", "105720.627500", "105722.117500", "105723.607500", "105725.097500", "105726.587500", "105728.077500", "105729.567500", "105731.057500", "105732.547500", "105734.037500", "105735.527500", "105737.017500", "105738.507500", "105739.997500", "105741.487500", "105742.977500", "105744.467500", "105745.957500", "105747.447500", "105748.937500", "105750.427500", "105751.917500", "105753.407500", "105754.897500", "105756.387500", "105757.877500", "105759.367500", "105800.857500", "105802.347500", "105803.837500", "105805.327500", "105806.817500", "105808.307500", "105809.797500", "105811.287500", "105812.777500", "105814.267500", "105815.757500", "105817.247500", "105818.737500", "105820.227500", "105821.717500", "105823.207500", "105824.697500", "105826.187500", "105827.677500", "105829.167500", "105830.657500", "105832.147500", "105833.637500", "105835.127500", "105836.617500", "105838.107500", "105839.597500", "105841.087500", "105842.577500", "105844.067500", "105845.557500", "105847.047500", "105848.537500", "105850.027500", "105851.517500", "105853.007500", "105854.497500", "105855.987500", "105857.477500", "105858.967500", "105900.457500", "105901.947500", "105903.437500", "105904.927500", "105906.417500", "105907.907500", "105909.397500", "105910.887500", "105912.377500", "105913.867500", "105915.357500", "105916.847500", "105918.337500"],
      "ContentTime": ["104828.606000", "104828.609000", "104828.612000", "104828.615000", "104828.624000", "104828.627000", "104828.630000", "104828.633000", "104828.636000", "104828.639000", "104828.642000", "104828.645000", "104828.648000", "104828.657000", "104828.660000", "104828.663000", "104828.666000", "104828.669000", "104828.672000", "104828.675000", "104828.678000", "104828.681000", "104828.684000", "104828.687000", "104848.568000", "104848.571000", "104848.574000", "104848.577000", "104848.580000", "104848.582000", "104848.585000", "104848.588000", "104848.591000", "104848.594000", "104848.597000", "104848.600000", "104848.603000", "104848.606000", "104848.609000", "104848.611000", "104848.617000", "104848.619000", "104848.622000", "104848.625000", "104908.568000", "104908.571000", "104908.574000", "104908.577000", "104908.580000", "104908.583000", "104908.585000", "104908.593000", "104908.596000", "104908.598000", "104908.601000", "104908.604000", "104908.607000", "104908.610000", "104908.613000", "104908.616000", "104908.618000", "104908.621000", "104908.624000", "104908.627000", "104928.568000", "104928.571000", "104928.574000", "104928.577000", "104928.580000", "104928.582000", "104928.585000", "104928.588000", "104928.591000", "104928.594000", "104928.597000", "104928.600000", "104928.603000", "104928.606000", "104928.609000", "104928.612000", "104928.614000", "104928.617000", "104928.620000", "104928.623000", "104948.568000", "104948.571000", "104948.574000", "104948.577000", "104948.580000", "104948.583000", "104948.586000", "104948.588000", "104948.591000", "104948.594000", "104948.597000", "104948.600000", "104948.603000", "104948.606000", "104948.608000", "104948.611000", "104948.614000", "104948.617000", "104948.620000", "104948.623000", "105028.568000", "105028.571000", "105028.574000", "105028.577000", "105028.580000", "105028.583000", "105028.585000", "105028.588000", "105028.591000", "105028.594000", "105028.597000", "105028.600000", "105028.603000", "105028.606000", "105028.618000", "105028.621000", "105028.624000", "105028.627000", "105028.630000", "105028.633000", "105028.635000", "105028.638000", "105028.641000", "105028.644000", "105028.647000", "105028.658000", "105028.661000", "105108.568000", "105108.571000", "105108.574000", "105108.577000", "105108.580000", "105108.583000", "105108.586000", "105108.588000", "105108.591000", "105108.594000", "105108.597000", "105108.600000", "105108.603000", "105108.606000", "105108.609000", "105108.612000", "105108.615000", "105108.618000", "105108.620000", "105108.623000", "105108.626000", "105108.629000", "105108.632000", "105108.635000", "105108.638000", "105108.641000", "105108.644000", "105148.568000", "105148.571000", "105148.574000", "105148.577000", "105148.580000", "105148.583000", "105148.586000", "105148.588000", "105148.591000", "105148.594000", "105148.597000", "105148.600000", "105148.603000", "105148.606000", "105148.609000", "105148.612000", "105148.614000", "105148.617000", "105148.620000", "105148.623000", "105148.626000", "105148.629000", "105148.632000", "105148.635000", "105148.638000", "105148.641000", "105148.644000", "105228.567000", "105228.570000", "105228.573000", "105228.576000", "105228.579000", "105228.582000", "105228.585000", "105228.588000", "105228.590000", "105228.593000", "105228.596000", "105228.599000", "105228.602000", "105228.605000", "105228.608000", "105228.611000", "105228.614000", "105228.617000", "105228.619000", "105228.622000", "105228.625000", "105228.628000", "105228.631000", "105228.634000", "105228.637000", "105228.640000", "105228.643000", "105308.568000", "105308.571000", "105308.574000", "105308.577000", "105308.580000", "105308.583000", "105308.586000", "105308.589000", "105308.591000", "105308.594000", "105308.597000", "105308.600000", "105308.603000", "105308.606000", "105308.609000", "105308.612000", "105308.615000", "105308.618000", "105308.621000", "105308.623000", "105308.626000", "105308.629000", "105308.632000", "105308.635000", "105308.638000", "105308.641000", "105308.644000", "105348.568000", "105348.576000", "105348.579000", "105348.582000", "105348.584000", "105348.587000", "105348.590000", "105348.593000", "105348.596000", "105348.599000", "105348.602000", "105348.605000", "105348.608000", "105348.611000", "105348.613000", "105348.616000", "105348.619000", "105348.622000", "105348.625000", "105348.628000", "105348.631000", "105348.634000", "105348.637000", "105348.640000", "105348.643000", "105348.646000", "105348.649000", "105428.568000", "105428.571000", "105428.574000", "105428.578000", "105428.581000", "105428.583000", "105428.586000", "105428.589000", "105428.592000", "105428.595000", "105428.598000", "105428.601000", "105428.604000", "105428.607000", "105428.610000", "105428.613000", "105428.616000", "105428.618000", "105428.621000", "105428.624000", "105428.627000", "105428.630000", "105428.633000", "105428.636000", "105428.639000", "105428.642000", "105508.568000", "105508.571000", "105508.574000", "105508.577000", "105508.580000", "105508.583000", "105508.586000", "105508.589000", "105508.592000", "105508.595000", "105508.597000", "105508.600000", "105508.603000", "105508.606000", "105508.609000", "105508.612000", "105508.615000", "105508.618000", "105508.620000", "105508.623000", "105508.626000", "105508.646000", "105508.649000", "105508.652000", "105508.655000", "105508.658000", "105508.661000", "105548.568000", "105548.571000", "105548.574000", "105548.577000", "105548.580000", "105548.583000", "105548.586000", "105548.589000", "105548.592000", "105548.595000", "105548.598000", "105548.601000", "105548.604000", "105548.607000", "105548.610000", "105548.613000", "105548.616000", "105548.619000", "105548.622000", "105548.624000", "105548.627000", "105548.630000", "105548.633000", "105548.636000", "105548.639000", "105548.642000", "105548.645000", "105628.568000", "105628.571000", "105628.574000", "105628.577000", "105628.580000", "105628.583000", "105628.586000", "105628.589000", "105628.591000", "105628.594000", "105628.597000", "105628.600000", "105628.603000", "105628.606000", "105628.609000", "105628.612000", "105628.615000", "105628.618000", "105628.620000", "105628.623000", "105628.626000", "105628.629000", "105628.632000", "105628.635000", "105628.638000", "105628.641000", "105628.644000", "105708.567000", "105708.570000", "105708.573000", "105708.576000", "105708.579000", "105708.582000", "105708.585000", "105708.588000", "105708.591000", "105708.594000", "105708.596000", "105708.599000", "105708.602000", "105708.605000", "105708.608000", "105708.611000", "105708.614000", "105708.617000", "105708.620000", "105708.623000", "105708.626000", "105708.629000", "105708.632000", "105708.634000", "105708.637000", "105708.640000", "105708.643000", "105748.568000", "105748.571000", "105748.574000", "105748.577000", "105748.580000", "105748.583000", "105748.586000", "105748.589000", "105748.592000", "105748.595000", "105748.597000", "105748.600000", "105748.603000", "105748.606000", "105748.609000", "105748.612000", "105748.615000", "105748.618000", "105748.621000", "105748.624000", "105748.627000", "105748.630000", "105748.633000", "105748.635000", "105748.638000", "105748.641000", "105748.644000", "105828.568000", "105828.571000", "105828.574000", "105828.577000", "105828.580000", "105828.583000", "105828.587000", "105828.590000", "105828.593000", "105828.596000", "105828.600000", "105828.603000", "105828.606000", "105828.609000", "105828.612000", "105828.615000", "105828.618000", "105828.621000", "105828.624000", "105828.627000", "105828.629000", "105828.632000", "105828.635000", "105828.638000", "105828.641000", "105828.644000", "105908.568000", "105908.571000", "105908.574000", "105908.577000", "105908.580000", "105908.583000", "105908.586000", "105908.589000", "105908.591000", "105908.594000", "105908.597000", "105908.600000", "105908.603000", "105908.606000", "105908.609000", "105908.612000", "105908.615000", "105908.618000", "105908.620000", "105908.623000", "105908.626000", "105908.629000", "105908.632000", "105908.635000", "105908.638000", "105908.641000", "105908.644000", "105921.263000", "105921.266000", "105921.269000", "105921.277000", "105921.280000", "105921.283000", "105921.286000", "105921.289000", "105921.292000"],
