{
  "AcquisitionMatrixPE": 104,
  "AcquisitionNumber": 1,
  "AcquisitionTime": "11:12:17.920000",
  "BandwidthPerPixelPhaseEncode": 17.17,
  "BaseResolution": 104,
  "BodyPartExamined": "BRAIN",
  "CoilString": "HC1-7;NC1_2",
  "ConsistencyInfo": "N4_VE11C_LATEST_20160120",
  "ConversionSoftware": "dcm2niix",
  "ConversionSoftwareVersion": "v1.0.20190902",
  "DerivedVendorReportedEchoSpacing": 0.000560011,
  "DeviceSerialNumber": "167006",
  "DwellTime": 2.1e-06,
  "EchoTime": 0.037,
  "EchoTrainLength": 104,
  "EffectiveEchoSpacing": 0.000560011,
  "FlipAngle": 52,
  "ImageComments": "Unaliased_MB4_PE3_LB",
  "ImageOrientationPatientDICOM": [0.992076, 0.1028, 0.0722294, -0.0775554, 0.953375, -0.291654],
  "ImageType": [
    "ORIGINAL",
    "PRIMARY",
    "M",
    "MB",
    "ND",
    "MOSAIC"
],
  "ImagingFrequency": 123.259,
  "InPlanePhaseEncodingDirectionDICOM": "COL",
  "InstitutionAddress": "Chemin_Queen-Mary_4565_Montreal_District_CA_H3W_1W5",
  "InstitutionName": "IUGM",
  "InstitutionalDepartmentName": "Department",
  "MRAcquisitionType": "2D",
  "MagneticFieldStrength": 3,
  "Manufacturer": "Siemens",
  "ManufacturersModelName": "Prisma_fit",
  "Modality": "MR",
  "MultibandAccelerationFactor": 4,
  "PartialFourier": 1,
  "PatientPosition": "HFS",
  "PercentPhaseFOV": 100,
  "PhaseEncodingDirection": "j",
  "PhaseEncodingSteps": 104,
  "PhaseResolution": 1,
  "PixelBandwidth": 2290,
  "ProcedureStepDescription": "games_shinobi",
  "ProtocolName": "func_task-shinobi_run-3",
  "PulseSequenceDetails": "%CustomerSeq%_cmrr_mbep2d_bold",
  "ReceiveCoilActiveElements": "HC1-7;NC1,2",
  "ReceiveCoilName": "HeadNeck_64",
  "ReconMatrixPE": 104,
  "RepetitionTime": 1.49,
  "SAR": 0.0421585,
  "ScanOptions": "FS",
  "ScanningSequence": "EP",
  "SequenceName": "epfid2d1_104",
  "SequenceVariant": "SK_SS",
  "SeriesDescription": "func_task-shinobi_run-3",
  "SeriesNumber": 13,
  "ShimSetting": [637, -7230, -8826, 644, 66, -100, 88, -14],
  "SliceThickness": 2,
  "SliceTiming": [0, 0.785, 0.0975, 0.8825, 0.195, 0.98, 0.295, 1.0775, 0.3925, 1.175, 0.49, 1.275, 0.5875, 1.3725, 0.685, 0, 0.785, 0.0975, 0.8825, 0.195, 0.98, 0.295, 1.0775, 0.3925, 1.175, 0.49, 1.275, 0.5875, 1.3725, 0.685, 0, 0.785, 0.0975, 0.8825, 0.195, 0.98, 0.295, 1.0775, 0.3925, 1.175, 0.49, 1.275, 0.5875, 1.3725, 0.685, 0, 0.785, 0.0975, 0.8825, 0.195, 0.98, 0.295, 1.0775, 0.3925, 1.175, 0.49, 1.275, 0.5875, 1.3725, 0.685],
  "SoftwareVersions": "syngo_MR_E11",
  "SpacingBetweenSlices": 2,
  "StationName": "MRC35049",
  "TaskName": "shinobi",
  "TotalReadoutTime": 0.0576811,
  "TxRefAmp": 252.066,
  "WipMemBlock": "fb5fa650-37ad-46a7-b583-7d8debe9af81||Sequence: R016 ve11c/master r/e634e98; Dec 19 2017 11:00:25 by eja",
  "dcmmeta_affine": [
    [-1.9841523170471191, -0.15511082112789154, 0.19768734276294708, 108.38932800292969],
    [-0.20559988915920258, 1.9067492485046387, -0.5674821138381958, -52.433921813964844],
    [0.1444588005542755, 0.5833077430725098, 1.907585859298706, -57.842445373535156],
    [0.0, 0.0, 0.0, 1.0]
],
  "dcmmeta_reorient_transform": [
    [0.0, -1.0, 0.0, 103.0],
    [1.0, 0.0, 0.0, 0.0],
    [0.0, 0.0, 1.0, 0.0],
    [0.0, 0.0, 0.0, 1.0]
],
  "dcmmeta_shape": [104, 104, 60, 411],
  "dcmmeta_slice_dim": 2,
  "dcmmeta_version": 0.6,
  "global": {
    "const": {
      "AcquisitionMatrix": [104, 0, 0, 104],
      "AngioFlag": "N",
      "BitsAllocated": 16,
      "BitsStored": 16,
      "BodyPartExamined": "BRAIN",
      "Columns": 832,
      "EchoNumbers": 1,
      "EchoTime": 37.0,
      "EchoTrainLength": 104,
      "FlipAngle": 52.0,
      "HighBit": 15,
      "ImageOrientationPatient": [0.99207614913339, 0.10279994359956, 0.07222939786944, -0.0775554128715, 0.95337462909293, -0.2916538608286],
      "ImagePositionPatient": [-758.18401245564, -912.85633932878, 161.97925735379],
      "ImageType": [
        "ORIGINAL",
        "PRIMARY",
        "M",
        "MB",
        "ND",
        "MOSAIC"
],
      "ImagedNucleus": "1H",
      "ImagingFrequency": 123.259367,
      "InPlanePhaseEncodingDirection": "COL",
      "MRAcquisitionType": "2D",
      "MagneticFieldStrength": 3.0,
      "Manufacturer": "SIEMENS",
      "ManufacturerModelName": "Prisma_fit",
      "Modality": "MR",
      "NumberOfAverages": 1.0,
      "NumberOfPhaseEncodingSteps": 104,
      "PercentPhaseFieldOfView": 100.0,
      "PercentSampling": 100.0,
      "PerformedProcedureStepStartTime": "104118.412000",
      "PhotometricInterpretation": "MONOCHROME2",
      "PixelBandwidth": 2290.0,
      "PixelRepresentation": 0,
      "PixelSpacing": [2.0, 2.0],
      "ProtocolName": "func_task-shinobi_run-3",
      "RepetitionTime": 1490.0,
      "Rows": 832,
      "SAR": 0.04215846063342,
      "SamplesPerPixel": 1,
      "ScanOptions": "FS",
      "ScanningSequence": "EP",
      "SequenceName": "epfid2d1_104",
      "SequenceVariant": [
        "SK",
        "SS"
],
      "SeriesDescription": "func_task-shinobi_run-3",
      "SeriesNumber": 13,
      "SeriesTime": "111336.385000",
      "SliceLocation": -29.578459788481,
      "SliceThickness": 2.0,
      "SmallestImagePixelValue": 0,
      "SoftwareVersions": "syngo MR E11",
      "SpacingBetweenSlices": 1.9999999668194,
      "SpecificCharacterSet": "ISO_IR 100",
      "StudyID": "1",
      "StudyTime": "104118.337000",
      "TransmitCoilName": "Body",
      "VariableFlipAngleFlag": "N",
      "WindowCenterWidthExplanation": "Algo1",
      "dBdt": 0.0},
    "slices": {}
  },
  "time": {
    "samples": {
      "AcquisitionNumber": [1, 2, 3, 4, 5, 6, 7, 8, 9, 10, 11, 12, 13, 14, 15, 16, 17, 18, 19, 20, 21, 22, 23, 24, 25, 26, 27, 28, 29, 30, 31, 32, 33, 34, 35, 36, 37, 38, 39, 40, 41, 42, 43, 44, 45, 46, 47, 48, 49, 50, 51, 52, 53, 54, 55, 56, 57, 58, 59, 60, 61, 62, 63, 64, 65, 66, 67, 68, 69, 70, 71, 72, 73, 74, 75, 76, 77, 78, 79, 80, 81, 82, 83, 84, 85, 86, 87, 88, 89, 90, 91, 92, 93, 94, 95, 96, 97, 98, 99, 100, 101, 102, 103, 104, 105, 106, 107, 108, 109, 110, 111, 112, 113, 114, 115, 116, 117, 118, 119, 120, 121, 122, 123, 124, 125, 126, 127, 128, 129, 130, 131, 132, 133, 134, 135, 136, 137, 138, 139, 140, 141, 142, 143, 144, 145, 146, 147, 148, 149, 150, 151, 152, 153, 154, 155, 156, 157, 158, 159, 160, 161, 162, 163, 164, 165, 166, 167, 168, 169, 170, 171, 172, 173, 174, 175, 176, 177, 178, 179, 180, 181, 182, 183, 184, 185, 186, 187, 188, 189, 190, 191, 192, 193, 194, 195, 196, 197, 198, 199, 200, 201, 202, 203, 204, 205, 206, 207, 208, 209, 210, 211, 212, 213, 214, 215, 216, 217, 218, 219, 220, 221, 222, 223, 224, 225, 226, 227, 228, 229, 230, 231, 232, 233, 234, 235, 236, 237, 238, 239, 240, 241, 242, 243, 244, 245, 246, 247, 248, 249, 250, 251, 252, 253, 254, 255, 256, 257, 258, 259, 260, 261, 262, 263, 264, 265, 266, 267, 268, 269, 270, 271, 272, 273, 274, 275, 276, 277, 278, 279, 280, 281, 282, 283, 284, 285, 286, 287, 288, 289, 290, 291, 292, 293, 294, 295, 296, 297, 298, 299, 300, 301, 302, 303, 304, 305, 306, 307, 308, 309, 310, 311, 312, 313, 314, 315, 316, 317, 318, 319, 320, 321, 322, 323, 324, 325, 326, 327, 328, 329, 330, 331, 332, 333, 334, 335, 336, 337, 338, 339, 340, 341, 342, 343, 344, 345, 346, 347, 348, 349, 350, 351, 352, 353, 354, 355, 356, 357, 358, 359, 360, 361, 362, 363, 364, 365, 366, 367, 368, 369, 370, 371, 372, 373, 374, 375, 376, 377, 378, 379, 380, 381, 382, 383, 384, 385, 386, 387, 388, 389, 390, 391, 392, 393, 394, 395, 396, 397, 398, 399, 400, 401, 402, 403, 404, 405, 406, 407, 408, 409, 410, 411],
      "AcquisitionTime": ["111217.920000", "111219.410000", "111220.900000", "111222.390000", "111223.880000", "111225.370000", "111226.860000", "111228.350000", "111229.840000", "111231.330000", "111232.820000", "111234.310000", "111235.800000", "111237.290000", "111238.780000", "111240.270000", "111241.760000", "111243.250000", "111244.740000", "111246.230000", "111247.720000", "111249.210000", "111250.700000", "111252.190000", "111253.680000", "111255.170000", "111256.660000", "111258.150000", "111259.640000", "111301.130000", "111302.620000", "111304.110000", "111305.600000", "111307.090000", "111308.580000", "111310.070000", "111311.560000", "111313.050000", "111314.540000", "111316.030000", "111317.520000", "111319.010000", "111320.500000", "111321.990000", "111323.480000", "111324.970000", "111326.460000", "111327.950000", "111329.440000", "111330.930000", "111332.420000", "111333.910000", "111335.400000", "111336.890000", "111338.380000", "111339.870000", "111341.360000", "111342.850000", "111344.340000", "111345.830000", "111347.320000", "111348.810000", "111350.300000", "111351.790000", "111353.280000", "111354.770000", "111356.260000", "111357.750000", "111359.240000", "111400.730000", "111402.220000", "111403.710000", "111405.200000", "111406.690000", "111408.180000", "111409.670000", "111411.160000", "111412.650000", "111414.140000", "111415.630000", "111417.120000", "111418.610000", "111420.100000", "111421.590000", "111423.080000", "111424.570000", "111426.060000", "111427.550000", "111429.040000", "111430.530000", "111432.020000", "111433.510000", "111435.000000", "111436.490000", "111437.980000", "111439.470000", "111440.960000", "111442.450000", "111443.940000", "111445.430000", "111446.920000", "111448.410000", "111449.900000", "111451.390000", "111452.880000", "111454.370000", "111455.860000", "111457.350000", "111458.840000", "111500.330000", "111501.820000", "111503.310000", "111504.800000", "111506.290000", "111507.780000", "111509.270000", "111510.760000", "111512.250000", "111513.740000", "111515.230000", "111516.720000", "111518.210000", "111519.700000", "111521.190000", "111522.680000", "111524.170000", "111525.660000", "111527.150000", "111528.640000", "111530.130000", "111531.620000", "111533.110000", "111534.600000", "111536.090000", "111537.580000", "111539.070000", "111540.560000", "111542.050000", "111543.540000", "111545.030000", "111546.520000", "111548.010000", "111549.500000", "111550.990000", "111552.480000", "111553.970000", "111555.460000", "111556.950000", "111558.440000", "111559.930000", "111601.420000", "111602.910000", "111604.400000", "111605.890000", "111607.380000", "111608.870000", "111610.360000", "111611.850000", "111613.340000", "111614.830000", "111616.320000", "111617.810000", "111619.300000", "111620.790000", "111622.280000", "111623.770000", "111625.260000", "111626.750000", "111628.240000", "111629.730000", "111631.220000", "111632.710000", "111634.200000", "111635.690000", "111637.180000", "111638.670000", "111640.160000", "111641.650000", "111643.140000", "111644.630000", "111646.120000", "111647.610000", "111649.100000", "111650.590000", "111652.080000", "111653.570000", "111655.060000", "111656.550000", "111658.040000", "111659.530000", "111701.020000", "111702.510000", "111704.000000", "111705.490000", "111706.980000", "111708.470000", "111709.960000", "111711.450000", "111712.940000", "111714.430000", "111715.920000", "111717.410000", "111718.900000", "111720.390000", "111721.880000", "111723.370000", "111724.860000", "111726.350000", "111727.840000", "111729.330000", "111730.820000", "111732.310000", "111733.800000", "111735.290000", "111736.780000", "111738.270000", "111739.760000", "111741.250000", "111742.740000", "111744.230000", "111745.720000", "111747.210000", "111748.700000", "111750.190000", "111751.680000", "111753.170000", "111754.660000", "111756.150000", "111757.640000", "111759.130000", "111800.620000", "111802.110000", "111803.600000", "111805.090000", "111806.580000", "111808.070000", "111809.560000", "111811.050000", "111812.540000", "111814.030000", "111815.520000", "111817.010000", "111818.500000", "111819.990000", "111821.480000", "111822.970000", "111824.460000", "111825.950000", "111827.440000", "111828.930000", "111830.420000", "111831.910000", "111833.400000", "111834.890000", "111836.380000", "111837.870000", "111839.360000", "111840.850000", "111842.340000", "111843.830000", "111845.320000", "111846.810000", "111848.300000", "111849.790000", "111851.280000", "111852.770000", "111854.260000", "111855.750000", "111857.240000", "111858.730000", "111900.220000", "111901.710000", "111903.200000", "111904.690000", "111906.180000", "111907.670000", "111909.160000", "111910.650000", "111912.140000", "111913.630000", "111915.120000", "111916.610000", "111918.100000", "111919.590000", "111921.080000", "111922.570000", "111924.060000", "111925.550000", "111927.040000", "111928.530000", "111930.020000", "111931.510000", "111933.000000", "111934.490000", "111935.980000", "111937.470000", "111938.960000", "111940.450000", "111941.940000", "111943.430000", "111944.920000", "111946.410000", "111947.900000", "111949.390000", "111950.880000", "111952.370000", "111953.860000", "111955.350000", "111956.840000", "111958.330000", "111959.820000", "112001.310000", "112002.800000", "112004.290000", "112005.780000", "112007.270000", "112008.760000", "112010.250000", "112011.740000", "112013.230000", "112014.720000", "112016.210000", "112017.700000", "112019.190000", "112020.680000", "112022.170000", "112023.660000", "112025.150000", "112026.640000", "112028.130000", "112029.620000", "112031.110000", "112032.600000", "112034.090000", "112035.580000", "112037.070000", "112038.560000", "112040.050000", "112041.540000", "112043.030000", "112044.520000", "112046.010000", "112047.500000", "112048.990000", "112050.480000", "112051.970000", "112053.460000", "112054.950000", "112056.440000", "112057.930000", "112059.420000", "112100.910000", "112102.400000", "112103.890000", "112105.380000", "112106.870000", "112108.360000", "112109.850000", "112111.340000", "112112.830000", "112114.320000", "112115.810000", "112117.300000", "112118.790000", "112120.280000", "112121.770000", "112123.260000", "112124.750000", "112126.240000", "112127.730000", "112129.220000", "112130.710000", "112132.200000", "112133.690000", "112135.180000", "112136.670000", "112138.160000", "112139.650000", "112141.140000", "112142.630000", "112144.120000", "112145.610000", "112147.100000", "112148.590000", "112150.080000", "112151.570000", "112153.060000", "112154.550000", "112156.040000", "112157.530000", "112159.020000", "112200.510000", "112202.000000", "112203.490000", "112204.980000", "112206.470000", "112207.960000", "112209.450000", "112210.940000", "112212.430000", "112213.920000", "112215.410000", "112216.900000", "112218.390000", "112219.880000", "112221.370000", "112222.860000", "112224.350000", "112225.840000", "112227.330000", "112228.820000"],
      "ContentTime": ["111336.388000", "111336.391000", "111336.394000", "111336.402000", "111336.405000", "111336.408000", "111336.411000", "111336.414000", "111336.416000", "111336.419000", "111336.422000", "111336.430000", "111336.432000", "111336.435000", "111336.438000", "111336.441000", "111336.444000", "111336.447000", "111336.450000", "111336.453000", "111336.456000", "111336.459000", "111336.462000", "111336.464000", "111336.467000", "111356.362000", "111356.365000", "111356.368000", "111356.371000", "111356.374000", "111356.376000", "111356.380000", "111356.383000", "111356.386000", "111356.389000", "111356.392000", "111356.395000", "111356.398000", "111356.401000", "111356.403000", "111356.406000", "111356.409000", "111356.412000", "111356.415000", "111356.418000", "111416.362000", "111416.367000", "111416.370000", "111416.373000", "111416.376000", "111416.379000", "111416.382000", "111416.384000", "111416.387000", "111416.390000", "111416.393000", "111416.396000", "111416.399000", "111416.402000", "111416.405000", "111416.407000", "111416.410000", "111416.413000", "111416.416000", "111416.419000", "111436.362000", "111436.365000", "111436.368000", "111436.371000", "111436.374000", "111436.377000", "111436.380000", "111436.383000", "111436.386000", "111436.389000", "111436.391000", "111436.394000", "111436.397000", "111436.400000", "111436.403000", "111436.406000", "111436.419000", "111436.422000", "111436.425000", "111436.428000", "111456.363000", "111456.366000", "111456.369000", "111456.372000", "111456.375000", "111456.396000", "111456.399000", "111456.402000", "111456.404000", "111456.407000", "111456.410000", "111456.413000", "111456.416000", "111456.419000", "111456.422000", "111456.424000", "111456.427000", "111456.430000", "111456.433000", "111456.436000", "111536.362000", "111536.365000", "111536.368000", "111536.371000", "111536.374000", "111536.377000", "111536.379000", "111536.382000", "111536.385000", "111536.388000", "111536.391000", "111536.394000", "111536.397000", "111536.400000", "111536.403000", "111536.406000", "111536.408000", "111536.411000", "111536.414000", "111536.417000", "111536.420000", "111536.423000", "111536.432000", "111536.435000", "111536.438000", "111536.441000", "111536.444000", "111616.362000", "111616.365000", "111616.368000", "111616.371000", "111616.374000", "111616.377000", "111616.379000", "111616.382000", "111616.385000", "111616.388000", "111616.391000", "111616.394000", "111616.397000", "111616.400000", "111616.403000", "111616.406000", "111616.409000", "111616.411000", "111616.414000", "111616.417000", "111616.420000", "111616.423000", "111616.426000", "111616.429000", "111616.432000", "111616.434000", "111616.437000", "111656.362000", "111656.365000", "111656.368000", "111656.371000", "111656.374000", "111656.377000", "111656.380000", "111656.383000", "111656.386000", "111656.389000", "111656.392000", "111656.395000", "111656.398000", "111656.401000", "111656.404000", "111656.407000", "111656.410000", "111656.413000", "111656.415000", "111656.418000", "111656.421000", "111656.424000", "111656.427000", "111656.430000", "111656.433000", "111656.436000", "111656.439000", "111736.363000", "111736.366000", "111736.369000", "111736.372000", "111736.375000", "111736.378000", "111736.381000", "111736.383000", "111736.386000", "111736.389000", "111736.392000", "111736.395000", "111736.398000", "111736.401000", "111736.404000", "111736.407000", "111736.409000", "111736.412000", "111736.415000", "111736.418000", "111736.421000", "111736.424000", "111736.427000", "111736.430000", "111736.433000", "111736.436000", "111736.438000", "111816.362000", "111816.365000", "111816.368000", "111816.371000", "111816.374000", "111816.377000", "111816.380000", "111816.383000", "111816.386000", "111816.388000", "111816.391000", "111816.394000", "111816.397000", "111816.400000", "111816.403000", "111816.406000", "111816.409000", "111816.412000", "111816.415000", "111816.418000", "111816.421000", "111816.423000", "111816.426000", "111816.429000", "111816.432000", "111816.435000", "111856.362000", "111856.365000", "111856.368000", "111856.371000", "111856.374000", "111856.377000", "111856.379000", "111856.382000", "111856.385000", "111856.388000", "111856.391000", "111856.394000", "111856.397000", "111856.400000", "111856.403000", "111856.406000", "111856.409000", "111856.411000", "111856.414000", "111856.417000", "111856.420000", "111856.423000", "111856.426000", "111856.429000", "111856.432000", "111856.435000", "111856.438000", "111936.363000", "111936.366000", "111936.369000", "111936.372000", "111936.375000", "111936.378000", "111936.381000", "111936.384000", "111936.387000", "111936.390000", "111936.393000", "111936.396000", "111936.398000", "111936.401000", "111936.404000", "111936.407000", "111936.410000", "111936.413000", "111936.416000", "111936.419000", "111936.422000", "111936.441000", "111936.444000", "111936.447000", "111936.450000", "111936.453000", "111936.456000", "112016.362000", "112016.365000", "112016.368000", "112016.371000", "112016.374000", "112016.377000", "112016.380000", "112016.383000", "112016.386000", "112016.388000", "112016.391000", "112016.394000", "112016.397000", "112016.400000", "112016.403000", "112016.406000", "112016.409000", "112016.412000", "112016.414000", "112016.417000", "112016.420000", "112016.423000", "112016.426000", "112016.429000", "112016.432000", "112016.435000", "112016.438000", "112056.362000", "112056.365000", "112056.368000", "112056.371000", "112056.374000", "112056.377000", "112056.380000", "112056.383000", "112056.386000", "112056.388000", "112056.391000", "112056.394000", "112056.397000", "112056.400000", "112056.403000", "112056.406000", "112056.409000", "112056.412000", "112056.414000", "112056.417000", "112056.420000", "112056.423000", "112056.426000", "112056.429000", "112056.432000", "112056.435000", "112056.438000", "112136.362000", "112136.365000", "112136.368000", "112136.371000", "112136.374000", "112136.377000", "112136.380000", "112136.383000", "112136.386000", "112136.389000", "112136.391000", "112136.394000", "112136.397000", "112136.400000", "112136.403000", "112136.406000", "112136.409000", "112136.412000", "112136.415000", "112136.418000", "112136.421000", "112136.423000", "112136.426000", "112136.429000", "112136.432000", "112136.435000", "112136.438000", "112216.363000", "112216.366000", "112216.369000", "112216.372000", "112216.375000", "112216.378000", "112216.381000", "112216.384000", "112216.387000", "112216.390000", "112216.393000", "112216.396000", "112216.399000", "112216.401000", "112216.404000", "112216.407000", "112216.410000", "112216.413000", "112216.416000", "112216.419000", "112216.422000", "112216.425000", "112216.428000", "112216.431000", "112216.433000", "112216.436000", "112231.309000", "112231.320000", "112231.322000", "112231.325000", "112231.328000", "112231.331000", "112231.334000", "112231.337000", "112231.340000", "112231.343000", "112231.346000"],
      "InstanceCreationTime": ["111336.388000", "111336.391000", "111336.394000", "111336.402000", "111336.405000", "111336.408000", "111336.411000", "111336.414000", "111336.416000", "111336.419000", "111336.422000", "111336.430000", "111336.432000", "111336.435000", "111336.438000", "111336.441000", "111336.444000", "111336.447000", "111336.450000", "111336.453000", "111336.456000", "111336.459000", "111336.462000", "111336.464000", "111336.467000", "111356.362000", "111356.365000", "111356.368000", "111356.371000", "111356.374000", "111356.376000", "111356.380000", "111356.383000", "111356.386000", "111356.389000", "111356.392000", "111356.395000", "111356.398000", "111356.401000", "111356.403000", "111356.406000", "111356.409000", "111356.412000", "111356.415000", "111356.418000", "111416.362000", "111416.367000", "111416.370000", "111416.373000", "111416.376000", "111416.379000", "111416.382000", "111416.384000", "111416.387000", "111416.390000", "111416.393000", "111416.396000", "111416.399000", "111416.402000", "111416.405000", "111416.407000", "111416.410000", "111416.413000", "111416.416000", "111416.419000", "111436.362000", "111436.365000", "111436.368000", "111436.371000", "111436.374000", "111436.377000", "111436.380000", "111436.383000", "111436.386000", "111436.389000", "111436.391000", "111436.394000", "111436.397000", "111436.400000", "111436.403000", "111436.406000", "111436.419000", "111436.422000", "111436.425000", "111436.428000", "111456.363000", "111456.366000", "111456.369000", "111456.372000", "111456.375000", "111456.396000", "111456.399000", "111456.402000", "111456.404000", "111456.407000", "111456.410000", "111456.413000", "111456.416000", "111456.419000", "111456.422000", "111456.424000", "111456.427000", "111456.430000", "111456.433000", "111456.436000", "111536.362000", "111536.365000", "111536.368000", "111536.371000", "111536.374000", "111536.377000", "111536.379000", "111536.382000", "111536.385000", "111536.388000", "111536.391000", "111536.394000", "111536.397000", "111536.400000", "111536.403000", "111536.406000", "111536.408000", "111536.411000", "111536.414000", "111536.417000", "111536.420000", "111536.423000", "111536.432000", "111536.435000", "111536.438000", "111536.441000", "111536.444000", "111616.362000", "111616.365000", "111616.368000", "111616.371000", "111616.374000", "111616.377000", "111616.379000", "111616.382000", "111616.385000", "111616.388000", "111616.391000", "111616.394000", "111616.397000", "111616.400000", "111616.403000", "111616.406000", "111616.409000", "111616.411000", "111616.414000", "111616.417000", "111616.420000", "111616.423000", "111616.426000", "111616.429000", "111616.432000", "111616.434000", "111616.437000", "111656.362000", "111656.365000", "111656.368000", "111656.371000", "111656.374000", "111656.377000", "111656.380000", "111656.383000", "111656.386000", "111656.389000", "111656.392000", "111656.395000", "111656.398000", "111656.401000", "111656.404000", "111656.407000", "111656.410000", "111656.413000", "111656.415000", "111656.418000", "111656.421000", "111656.424000", "111656.427000", "111656.430000", "111656.433000", "111656.436000", "111656.439000", "111736.363000", "111736.366000", "111736.369000", "111736.372000", "111736.375000", "111736.378000", "111736.381000", "111736.383000", "111736.386000", "111736.389000", "111736.392000", "111736.395000", "111736.398000", "111736.401000", "111736.404000", "111736.407000", "111736.409000", "111736.412000", "111736.415000", "111736.418000", "111736.421000", "111736.424000", "111736.427000", "111736.430000", "111736.433000", "111736.436000", "111736.438000", "111816.362000", "111816.365000", "111816.368000", "111816.371000", "111816.374000", "111816.377000", "111816.380000", "111816.383000", "111816.386000", "111816.388000", "111816.391000", "111816.394000", "111816.397000", "111816.400000", "111816.403000", "111816.406000", "111816.409000", "111816.412000", "111816.415000", "111816.418000", "111816.421000", "111816.423000", "111816.426000", "111816.429000", "111816.432000", "111816.435000", "111856.362000", "111856.365000", "111856.368000", "111856.371000", "111856.374000", "111856.377000", "111856.379000", "111856.382000", "111856.385000", "111856.388000", "111856.391000", "111856.394000", "111856.397000", "111856.400000", "111856.403000", "111856.406000", "111856.409000", "111856.411000", "111856.414000", "111856.417000", "111856.420000", "111856.423000", "111856.426000", "111856.429000", "111856.432000", "111856.435000", "111856.438000", "111936.363000", "111936.366000", "111936.369000", "111936.372000", "111936.375000", "111936.378000", "111936.381000", "111936.384000", "111936.387000", "111936.390000", "111936.393000", "111936.396000", "111936.398000", "111936.401000", "111936.404000", "111936.407000", "111936.410000", "111936.413000", "111936.416000", "111936.419000", "111936.422000", "111936.441000", "111936.444000", "111936.447000", "111936.450000", "111936.453000", "111936.456000", "112016.362000", "112016.365000", "112016.368000", "112016.371000", "112016.374000", "112016.377000", "112016.380000", "112016.383000", "112016.386000", "112016.388000", "112016.391000", "112016.394000", "112016.397000", "112016.400000", "112016.403000", "112016.406000", "112016.409000", "112016.412000", "112016.414000", "112016.417000", "112016.420000", "112016.423000", "112016.426000", "112016.429000", "112016.432000", "112016.435000", "112016.438000", "112056.362000", "112056.365000", "112056.368000", "112056.371000", "112056.374000", "112056.377000", "112056.380000", "112056.383000", "112056.386000", "112056.388000", "112056.391000", "112056.394000", "112056.397000", "112056.400000", "112056.403000", "112056.406000", "112056.409000", "112056.412000", "112056.414000", "112056.417000", "112056.420000", "112056.423000", "112056.426000", "112056.429000", "112056.432000", "112056.435000", "112056.438000", "112136.362000", "112136.365000", "112136.368000", "112136.371000", "112136.374000", "112136.377000", "112136.380000", "112136.383000", "112136.386000", "112136.389000", "112136.391000", "112136.394000", "112136.397000", "112136.400000", "112136.403000", "112136.406000", "112136.409000", "112136.412000", "112136.415000", "112136.418000", "112136.421000", "112136.423000", "112136.426000", "112136.429000", "112136.432000", "112136.435000", "112136.438000", "112216.363000", "112216.366000", "112216.369000", "112216.372000", "112216.375000", "112216.378000", "112216.381000", "112216.384000", "112216.387000", "112216.390000", "112216.393000", "112216.396000", "112216.399000", "112216.401000", "112216.404000", "112216.407000", "112216.410000", "112216.413000", "112216.416000", "112216.419000", "112216.422000", "112216.425000", "112216.428000", "112216.431000", "112216.433000", "112216.436000", "112231.309000", "112231.320000", "112231.322000", "112231.325000", "112231.328000", "112231.331000", "112231.334000", "112231.337000", "112231.340000", "112231.343000", "112231.346000"],
