{
  "AcquisitionMatrixPE": 104,
  "AcquisitionNumber": 1,
  "AcquisitionTime": "11:23:14.210000",
  "BandwidthPerPixelPhaseEncode": 17.17,
  "BaseResolution": 104,
  "BodyPartExamined": "BRAIN",
  "CoilString": "HC1-7;NC1_2",
  "ConsistencyInfo": "N4_VE11C_LATEST_20160120",
  "ConversionSoftware": "dcm2niix",
  "ConversionSoftwareVersion": "v1.0.20190902",
  "DerivedVendorReportedEchoSpacing": 0.000560011,
  "DeviceSerialNumber": "167006",
  "DwellTime": 2.1e-06,
  "EchoTime": 0.037,
  "EchoTrainLength": 104,
  "EffectiveEchoSpacing": 0.000560011,
  "FlipAngle": 52,
  "ImageComments": "Unaliased_MB4_PE3_LB",
  "ImageOrientationPatientDICOM": [0.992076, 0.1028, 0.0722294, -0.0775554, 0.953375, -0.291654],
  "ImageType": [
    "ORIGINAL",
    "PRIMARY",
    "M",
    "MB",
    "ND",
    "MOSAIC"
],
  "ImagingFrequency": 123.259,
  "InPlanePhaseEncodingDirectionDICOM": "COL",
  "InstitutionAddress": "Chemin_Queen-Mary_4565_Montreal_District_CA_H3W_1W5",
  "InstitutionName": "IUGM",
  "InstitutionalDepartmentName": "Department",
  "MRAcquisitionType": "2D",
  "MagneticFieldStrength": 3,
  "Manufacturer": "Siemens",
  "ManufacturersModelName": "Prisma_fit",
  "Modality": "MR",
  "MultibandAccelerationFactor": 4,
  "PartialFourier": 1,
  "PatientPosition": "HFS",
  "PercentPhaseFOV": 100,
  "PhaseEncodingDirection": "j",
  "PhaseEncodingSteps": 104,
  "PhaseResolution": 1,
  "PixelBandwidth": 2290,
  "ProcedureStepDescription": "games_shinobi",
  "ProtocolName": "func_task-shinobi_run-4",
  "PulseSequenceDetails": "%CustomerSeq%_cmrr_mbep2d_bold",
  "ReceiveCoilActiveElements": "HC1-7;NC1,2",
  "ReceiveCoilName": "HeadNeck_64",
  "ReconMatrixPE": 104,
  "RepetitionTime": 1.49,
  "SAR": 0.0421585,
  "ScanOptions": "FS",
  "ScanningSequence": "EP",
  "SequenceName": "epfid2d1_104",
  "SequenceVariant": "SK_SS",
  "SeriesDescription": "func_task-shinobi_run-4",
  "SeriesNumber": 15,
  "ShimSetting": [637, -7230, -8826, 644, 66, -100, 88, -14],
  "SliceThickness": 2,
  "SliceTiming": [0, 0.785, 0.0975, 0.8825, 0.195, 0.98, 0.295, 1.0775, 0.3925, 1.175, 0.49, 1.275, 0.5875, 1.3725, 0.685, 0, 0.785, 0.0975, 0.8825, 0.195, 0.98, 0.295, 1.0775, 0.3925, 1.175, 0.49, 1.275, 0.5875, 1.3725, 0.685, 0, 0.785, 0.0975, 0.8825, 0.195, 0.98, 0.295, 1.0775, 0.3925, 1.175, 0.49, 1.275, 0.5875, 1.3725, 0.685, 0, 0.785, 0.0975, 0.8825, 0.195, 0.98, 0.295, 1.0775, 0.3925, 1.175, 0.49, 1.275, 0.5875, 1.3725, 0.685],
  "SoftwareVersions": "syngo_MR_E11",
  "SpacingBetweenSlices": 2,
  "StationName": "MRC35049",
  "TaskName": "shinobi",
  "TotalReadoutTime": 0.0576811,
  "TxRefAmp": 252.066,
  "WipMemBlock": "96fbe62d-9a56-4a02-a105-f416fa24cd98||Sequence: R016 ve11c/master r/e634e98; Dec 19 2017 11:00:25 by eja",
  "dcmmeta_affine": [
    [-1.9841523170471191, -0.15511082112789154, 0.19768734276294708, 108.38932800292969],
    [-0.20559988915920258, 1.9067492485046387, -0.5674821138381958, -52.433921813964844],
    [0.1444588005542755, 0.5833077430725098, 1.907585859298706, -57.842445373535156],
    [0.0, 0.0, 0.0, 1.0]
],
  "dcmmeta_reorient_transform": [
    [0.0, -1.0, 0.0, 103.0],
    [1.0, 0.0, 0.0, 0.0],
    [0.0, 0.0, 1.0, 0.0],
    [0.0, 0.0, 0.0, 1.0]
],
  "dcmmeta_shape": [104, 104, 60, 459],
  "dcmmeta_slice_dim": 2,
  "dcmmeta_version": 0.6,
  "global": {
    "const": {
      "AcquisitionMatrix": [104, 0, 0, 104],
      "AngioFlag": "N",
      "BitsAllocated": 16,
      "BitsStored": 16,
      "BodyPartExamined": "BRAIN",
      "Columns": 832,
      "EchoNumbers": 1,
      "EchoTime": 37.0,
      "EchoTrainLength": 104,
      "FlipAngle": 52.0,
      "HighBit": 15,
      "ImageOrientationPatient": [0.99207614913339, 0.10279994359956, 0.07222939786944, -0.0775554128715, 0.95337462909293, -0.2916538608286],
      "ImagePositionPatient": [-758.18401245564, -912.85633932878, 161.97925735379],
      "ImageType": [
        "ORIGINAL",
        "PRIMARY",
        "M",
        "MB",
        "ND",
        "MOSAIC"
],
      "ImagedNucleus": "1H",
      "ImagingFrequency": 123.259368,
      "InPlanePhaseEncodingDirection": "COL",
      "MRAcquisitionType": "2D",
      "MagneticFieldStrength": 3.0,
      "Manufacturer": "SIEMENS",
      "ManufacturerModelName": "Prisma_fit",
      "Modality": "MR",
      "NumberOfAverages": 1.0,
      "NumberOfPhaseEncodingSteps": 104,
      "PercentPhaseFieldOfView": 100.0,
      "PercentSampling": 100.0,
      "PerformedProcedureStepStartTime": "104118.412000",
      "PhotometricInterpretation": "MONOCHROME2",
      "PixelBandwidth": 2290.0,
      "PixelRepresentation": 0,
      "PixelSpacing": [2.0, 2.0],
      "ProtocolName": "func_task-shinobi_run-4",
      "RepetitionTime": 1490.0,
      "Rows": 832,
      "SAR": 0.04215846063342,
      "SamplesPerPixel": 1,
      "ScanOptions": "FS",
      "ScanningSequence": "EP",
      "SequenceName": "epfid2d1_104",
      "SequenceVariant": [
        "SK",
        "SS"
],
      "SeriesDescription": "func_task-shinobi_run-4",
      "SeriesNumber": 15,
      "SeriesTime": "112428.599000",
      "SliceLocation": -29.578459788481,
      "SliceThickness": 2.0,
      "SmallestImagePixelValue": 0,
      "SoftwareVersions": "syngo MR E11",
      "SpacingBetweenSlices": 1.9999999668194,
      "SpecificCharacterSet": "ISO_IR 100",
      "StudyID": "1",
      "StudyTime": "104118.337000",
      "TransmitCoilName": "Body",
      "VariableFlipAngleFlag": "N",
      "WindowCenterWidthExplanation": "Algo1",
      "dBdt": 0.0},
    "slices": {}
  },
  "time": {
    "samples": {
      "AcquisitionNumber": [1, 2, 3, 4, 5, 6, 7, 8, 9, 10, 11, 12, 13, 14, 15, 16, 17, 18, 19, 20, 21, 22, 23, 24, 25, 26, 27, 28, 29, 30, 31, 32, 33, 34, 35, 36, 37, 38, 39, 40, 41, 42, 43, 44, 45, 46, 47, 48, 49, 50, 51, 52, 53, 54, 55, 56, 57, 58, 59, 60, 61, 62, 63, 64, 65, 66, 67, 68, 69, 70, 71, 72, 73, 74, 75, 76, 77, 78, 79, 80, 81, 82, 83, 84, 85, 86, 87, 88, 89, 90, 91, 92, 93, 94, 95, 96, 97, 98, 99, 100, 101, 102, 103, 104, 105, 106, 107, 108, 109, 110, 111, 112, 113, 114, 115, 116, 117, 118, 119, 120, 121, 122, 123, 124, 125, 126, 127, 128, 129, 130, 131, 132, 133, 134, 135, 136, 137, 138, 139, 140, 141, 142, 143, 144, 145, 146, 147, 148, 149, 150, 151, 152, 153, 154, 155, 156, 157, 158, 159, 160, 161, 162, 163, 164, 165, 166, 167, 168, 169, 170, 171, 172, 173, 174, 175, 176, 177, 178, 179, 180, 181, 182, 183, 184, 185, 186, 187, 188, 189, 190, 191, 192, 193, 194, 195, 196, 197, 198, 199, 200, 201, 202, 203, 204, 205, 206, 207, 208, 209, 210, 211, 212, 213, 214, 215, 216, 217, 218, 219, 220, 221, 222, 223, 224, 225, 226, 227, 228, 229, 230, 231, 232, 233, 234, 235, 236, 237, 238, 239, 240, 241, 242, 243, 244, 245, 246, 247, 248, 249, 250, 251, 252, 253, 254, 255, 256, 257, 258, 259, 260, 261, 262, 263, 264, 265, 266, 267, 268, 269, 270, 271, 272, 273, 274, 275, 276, 277, 278, 279, 280, 281, 282, 283, 284, 285, 286, 287, 288, 289, 290, 291, 292, 293, 294, 295, 296, 297, 298, 299, 300, 301, 302, 303, 304, 305, 306, 307, 308, 309, 310, 311, 312, 313, 314, 315, 316, 317, 318, 319, 320, 321, 322, 323, 324, 325, 326, 327, 328, 329, 330, 331, 332, 333, 334, 335, 336, 337, 338, 339, 340, 341, 342, 343, 344, 345, 346, 347, 348, 349, 350, 351, 352, 353, 354, 355, 356, 357, 358, 359, 360, 361, 362, 363, 364, 365, 366, 367, 368, 369, 370, 371, 372, 373, 374, 375, 376, 377, 378, 379, 380, 381, 382, 383, 384, 385, 386, 387, 388, 389, 390, 391, 392, 393, 394, 395, 396, 397, 398, 399, 400, 401, 402, 403, 404, 405, 406, 407, 408, 409, 410, 411, 412, 413, 414, 415, 416, 417, 418, 419, 420, 421, 422, 423, 424, 425, 426, 427, 428, 429, 430, 431, 432, 433, 434, 435, 436, 437, 438, 439, 440, 441, 442, 443, 444, 445, 446, 447, 448, 449, 450, 451, 452, 453, 454, 455, 456, 457, 458, 459],
      "AcquisitionTime": ["112314.210000", "112315.700000", "112317.190000", "112318.680000", "112320.170000", "112321.660000", "112323.150000", "112324.640000", "112326.130000", "112327.620000", "112329.110000", "112330.600000", "112332.090000", "112333.580000", "112335.070000", "112336.560000", "112338.050000", "112339.540000", "112341.030000", "112342.520000", "112344.010000", "112345.500000", "112346.990000", "112348.480000", "112349.970000", "112351.460000", "112352.950000", "112354.440000", "112355.930000", "112357.420000", "112358.910000", "112400.400000", "112401.890000", "112403.380000", "112404.870000", "112406.360000", "112407.850000", "112409.340000", "112410.830000", "112412.320000", "112413.810000", "112415.300000", "112416.790000", "112418.280000", "112419.770000", "112421.260000", "112422.750000", "112424.240000", "112425.730000", "112427.220000", "112428.710000", "112430.200000", "112431.690000", "112433.180000", "112434.670000", "112436.160000", "112437.650000", "112439.140000", "112440.630000", "112442.120000", "112443.610000", "112445.100000", "112446.590000", "112448.080000", "112449.570000", "112451.060000", "112452.550000", "112454.040000", "112455.530000", "112457.020000", "112458.510000", "112500.000000", "112501.490000", "112502.980000", "112504.470000", "112505.960000", "112507.450000", "112508.940000", "112510.430000", "112511.920000", "112513.410000", "112514.900000", "112516.390000", "112517.880000", "112519.370000", "112520.860000", "112522.350000", "112523.840000", "112525.330000", "112526.820000", "112528.310000", "112529.800000", "112531.290000", "112532.780000", "112534.270000", "112535.760000", "112537.250000", "112538.740000", "112540.230000", "112541.720000", "112543.210000", "112544.700000", "112546.190000", "112547.680000", "112549.170000", "112550.660000", "112552.150000", "112553.640000", "112555.130000", "112556.620000", "112558.110000", "112559.600000", "112601.090000", "112602.580000", "112604.070000", "112605.560000", "112607.050000", "112608.540000", "112610.030000", "112611.520000", "112613.010000", "112614.500000", "112615.990000", "112617.480000", "112618.970000", "112620.460000", "112621.950000", "112623.440000", "112624.930000", "112626.420000", "112627.910000", "112629.400000", "112630.890000", "112632.380000", "112633.870000", "112635.360000", "112636.850000", "112638.340000", "112639.830000", "112641.320000", "112642.810000", "112644.300000", "112645.790000", "112647.280000", "112648.770000", "112650.260000", "112651.750000", "112653.240000", "112654.730000", "112656.220000", "112657.710000", "112659.200000", "112700.690000", "112702.180000", "112703.670000", "112705.160000", "112706.650000", "112708.140000", "112709.630000", "112711.120000", "112712.610000", "112714.100000", "112715.590000", "112717.080000", "112718.570000", "112720.060000", "112721.550000", "112723.040000", "112724.530000", "112726.020000", "112727.510000", "112729.000000", "112730.490000", "112731.980000", "112733.470000", "112734.960000", "112736.450000", "112737.940000", "112739.430000", "112740.920000", "112742.410000", "112743.900000", "112745.390000", "112746.880000", "112748.370000", "112749.860000", "112751.350000", "112752.840000", "112754.330000", "112755.820000", "112757.310000", "112758.800000", "112800.290000", "112801.780000", "112803.270000", "112804.760000", "112806.250000", "112807.740000", "112809.230000", "112810.720000", "112812.210000", "112813.700000", "112815.190000", "112816.680000", "112818.170000", "112819.660000", "112821.150000", "112822.640000", "112824.130000", "112825.620000", "112827.110000", "112828.600000", "112830.090000", "112831.580000", "112833.070000", "112834.560000", "112836.050000", "112837.540000", "112839.030000", "112840.520000", "112842.010000", "112843.500000", "112844.990000", "112846.480000", "112847.970000", "112849.460000", "112850.950000", "112852.440000", "112853.930000", "112855.420000", "112856.910000", "112858.400000", "112859.890000", "112901.380000", "112902.870000", "112904.360000", "112905.850000", "112907.340000", "112908.830000", "112910.320000", "112911.810000", "112913.300000", "112914.790000", "112916.280000", "112917.770000", "112919.260000", "112920.750000", "112922.240000", "112923.730000", "112925.220000", "112926.710000", "112928.200000", "112929.690000", "112931.180000", "112932.670000", "112934.160000", "112935.650000", "112937.140000", "112938.630000", "112940.120000", "112941.610000", "112943.100000", "112944.590000", "112946.080000", "112947.570000", "112949.060000", "112950.550000", "112952.040000", "112953.530000", "112955.020000", "112956.510000", "112958.000000", "112959.490000", "113000.980000", "113002.470000", "113003.960000", "113005.450000", "113006.940000", "113008.430000", "113009.920000", "113011.410000", "113012.900000", "113014.390000", "113015.880000", "113017.370000", "113018.860000", "113020.350000", "113021.840000", "113023.330000", "113024.820000", "113026.310000", "113027.800000", "113029.290000", "113030.780000", "113032.270000", "113033.760000", "113035.250000", "113036.740000", "113038.230000", "113039.720000", "113041.210000", "113042.700000", "113044.190000", "113045.680000", "113047.170000", "113048.660000", "113050.150000", "113051.640000", "113053.130000", "113054.620000", "113056.110000", "113057.600000", "113059.090000", "113100.580000", "113102.070000", "113103.560000", "113105.050000", "113106.540000", "113108.030000", "113109.520000", "113111.010000", "113112.500000", "113113.990000", "113115.480000", "113116.970000", "113118.460000", "113119.950000", "113121.440000", "113122.930000", "113124.420000", "113125.910000", "113127.400000", "113128.890000", "113130.380000", "113131.870000", "113133.360000", "113134.850000", "113136.340000", "113137.830000", "113139.320000", "113140.810000", "113142.300000", "113143.790000", "113145.280000", "113146.770000", "113148.260000", "113149.750000", "113151.240000", "113152.730000", "113154.220000", "113155.710000", "113157.200000", "113158.690000", "113200.180000", "113201.670000", "113203.160000", "113204.650000", "113206.140000", "113207.630000", "113209.120000", "113210.610000", "113212.100000", "113213.590000", "113215.080000", "113216.570000", "113218.060000", "113219.550000", "113221.040000", "113222.530000", "113224.020000", "113225.510000", "113227.000000", "113228.490000", "113229.980000", "113231.470000", "113232.960000", "113234.450000", "113235.940000", "113237.430000", "113238.920000", "113240.410000", "113241.900000", "113243.390000", "113244.880000", "113246.370000", "113247.860000", "113249.350000", "113250.840000", "113252.330000", "113253.820000", "113255.310000", "113256.800000", "113258.290000", "113259.780000", "113301.270000", "113302.760000", "113304.250000", "113305.740000", "113307.230000", "113308.720000", "113310.210000", "113311.700000", "113313.190000", "113314.680000", "113316.170000", "113317.660000", "113319.150000", "113320.640000", "113322.130000", "113323.620000", "113325.110000", "113326.600000", "113328.090000", "113329.580000", "113331.070000", "113332.560000", "113334.050000", "113335.540000", "113337.030000", "113338.520000", "113340.010000", "113341.500000", "113342.990000", "113344.480000", "113345.970000", "113347.460000", "113348.950000", "113350.440000", "113351.930000", "113353.420000", "113354.910000", "113356.400000", "113357.890000", "113359.380000", "113400.870000", "113402.360000", "113403.850000", "113405.340000", "113406.830000", "113408.320000", "113409.810000", "113411.300000", "113412.790000", "113414.280000", "113415.770000", "113417.260000", "113418.750000", "113420.240000", "113421.730000", "113423.220000", "113424.710000", "113426.200000", "113427.690000", "113429.180000", "113430.670000", "113432.160000", "113433.650000", "113435.140000", "113436.630000"],
      "ContentTime": ["112428.603000", "112428.607000", "112428.611000", "112428.615000", "112428.618000", "112428.621000", "112428.624000", "112428.655000", "112428.658000", "112428.661000", "112428.667000", "112428.670000", "112428.673000", "112428.676000", "112428.679000", "112428.682000", "112428.684000", "112428.687000", "112428.690000", "112428.693000", "112448.568000", "112448.571000", "112448.574000", "112448.577000", "112448.593000", "112448.596000", "112448.599000", "112448.602000", "112448.605000", "112448.608000", "112448.610000", "112448.613000", "112448.616000", "112448.619000", "112448.622000", "112448.625000", "112448.627000", "112448.630000", "112448.633000", "112448.636000", "112448.639000", "112508.568000", "112508.571000", "112508.574000", "112508.577000", "112508.580000", "112508.582000", "112508.585000", "112508.594000", "112508.596000", "112508.599000", "112508.602000", "112508.605000", "112508.608000", "112508.611000", "112508.614000", "112508.617000", "112508.619000", "112508.622000", "112508.625000", "112508.628000", "112528.568000", "112528.571000", "112528.574000", "112528.577000", "112528.579000", "112528.582000", "112528.585000", "112528.588000", "112528.591000", "112528.594000", "112528.597000", "112528.600000", "112528.602000", "112528.605000", "112528.608000", "112528.611000", "112528.614000", "112528.617000", "112528.620000", "112528.623000", "112548.568000", "112548.571000", "112548.574000", "112548.577000", "112548.579000", "112548.582000", "112548.585000", "112548.588000", "112548.591000", "112548.594000", "112548.597000", "112548.600000", "112548.603000", "112548.605000", "112548.608000", "112548.611000", "112548.614000", "112548.617000", "112548.620000", "112548.623000", "112548.626000", "112628.568000", "112628.571000", "112628.574000", "112628.577000", "112628.580000", "112628.583000", "112628.585000", "112628.588000", "112628.591000", "112628.594000", "112628.597000", "112628.600000", "112628.603000", "112628.606000", "112628.608000", "112628.611000", "112628.614000", "112628.617000", "112628.620000", "112628.623000", "112628.626000", "112628.629000", "112628.632000", "112628.635000", "112628.638000", "112628.641000", "112628.644000", "112708.568000", "112708.571000", "112708.574000", "112708.577000", "112708.580000", "112708.583000", "112708.586000", "112708.589000", "112708.591000", "112708.594000", "112708.597000", "112708.600000", "112708.603000", "112708.606000", "112708.609000", "112708.612000", "112708.615000", "112708.618000", "112708.621000", "112708.624000", "112708.627000", "112708.630000", "112708.632000", "112708.635000", "112708.638000", "112708.641000", "112708.644000", "112748.568000", "112748.571000", "112748.574000", "112748.577000", "112748.580000", "112748.583000", "112748.586000", "112748.589000", "112748.591000", "112748.594000", "112748.597000", "112748.600000", "112748.603000", "112748.606000", "112748.609000", "112748.612000", "112748.615000", "112748.618000", "112748.621000", "112748.623000", "112748.626000", "112748.629000", "112748.632000", "112748.635000", "112748.638000", "112748.641000", "112748.644000", "112828.569000", "112828.573000", "112828.576000", "112828.579000", "112828.582000", "112828.585000", "112828.588000", "112828.590000", "112828.593000", "112828.596000", "112828.599000", "112828.602000", "112828.616000", "112828.619000", "112828.622000", "112828.624000", "112828.627000", "112828.630000", "112828.633000", "112828.636000", "112828.639000", "112828.642000", "112828.645000", "112828.647000", "112828.650000", "112828.653000", "112828.656000", "112908.568000", "112908.571000", "112908.574000", "112908.577000", "112908.580000", "112908.583000", "112908.586000", "112908.589000", "112908.592000", "112908.594000", "112908.597000", "112908.600000", "112908.603000", "112908.606000", "112908.609000", "112908.612000", "112908.615000", "112908.618000", "112908.621000", "112908.623000", "112908.626000", "112908.629000", "112908.632000", "112908.635000", "112908.638000", "112908.641000", "112908.644000", "112948.568000", "112948.571000", "112948.574000", "112948.577000", "112948.580000", "112948.583000", "112948.586000", "112948.589000", "112948.592000", "112948.594000", "112948.597000", "112948.600000", "112948.603000", "112948.606000", "112948.609000", "112948.612000", "112948.615000", "112948.618000", "112948.621000", "112948.623000", "112948.626000", "112948.629000", "112948.632000", "112948.635000", "112948.638000", "112948.641000", "112948.644000", "113028.568000", "113028.571000", "113028.574000", "113028.577000", "113028.580000", "113028.583000", "113028.586000", "113028.589000", "113028.592000", "113028.595000", "113028.597000", "113028.600000", "113028.603000", "113028.606000", "113028.609000", "113028.612000", "113028.615000", "113028.618000", "113028.621000", "113028.624000", "113028.627000", "113028.629000", "113028.632000", "113028.635000", "113028.638000", "113028.641000", "113028.644000", "113108.568000", "113108.571000", "113108.574000", "113108.577000", "113108.580000", "113108.583000", "113108.586000", "113108.589000", "113108.591000", "113108.594000", "113108.597000", "113108.600000", "113108.603000", "113108.606000", "113108.609000", "113108.613000", "113108.616000", "113108.618000", "113108.621000", "113108.624000", "113108.627000", "113108.630000", "113108.633000", "113108.636000", "113108.639000", "113108.642000", "113148.567000", "113148.570000", "113148.573000", "113148.576000", "113148.579000", "113148.582000", "113148.585000", "113148.588000", "113148.591000", "113148.594000", "113148.596000", "113148.599000", "113148.602000", "113148.605000", "113148.608000", "113148.611000", "113148.614000", "113148.617000", "113148.620000", "113148.622000", "113148.625000", "113148.628000", "113148.631000", "113148.634000", "113148.637000", "113148.640000", "113148.643000", "113228.568000", "113228.571000", "113228.574000", "113228.577000", "113228.580000", "113228.583000", "113228.586000", "113228.589000", "113228.592000", "113228.595000", "113228.597000", "113228.600000", "113228.603000", "113228.606000", "113228.609000", "113228.612000", "113228.615000", "113228.618000", "113228.621000", "113228.623000", "113228.626000", "113228.629000", "113228.632000", "113228.635000", "113228.638000", "113228.641000", "113228.644000", "113308.568000", "113308.571000", "113308.574000", "113308.577000", "113308.580000", "113308.583000", "113308.586000", "113308.589000", "113308.592000", "113308.595000", "113308.597000", "113308.600000", "113308.603000", "113308.606000", "113308.609000", "113308.612000", "113308.615000", "113308.618000", "113308.621000", "113308.624000", "113308.626000", "113308.629000", "113308.632000", "113308.635000", "113308.638000", "113308.641000", "113308.644000", "113348.568000", "113348.571000", "113348.574000", "113348.577000", "113348.580000", "113348.583000", "113348.586000", "113348.589000", "113348.592000", "113348.595000", "113348.597000", "113348.600000", "113348.603000", "113348.606000", "113348.609000", "113348.612000", "113348.615000", "113348.618000", "113348.621000", "113348.624000", "113348.627000", "113348.630000", "113348.632000", "113348.635000", "113348.638000", "113348.641000", "113348.644000", "113428.568000", "113428.571000", "113428.574000", "113428.577000", "113428.580000", "113428.583000", "113428.586000", "113428.589000", "113428.592000", "113428.595000", "113428.598000", "113428.600000", "113428.603000", "113428.606000", "113428.609000", "113428.612000", "113428.615000", "113428.618000", "113428.621000", "113428.624000", "113428.627000", "113428.630000", "113428.632000", "113428.635000", "113428.638000", "113428.641000", "113428.644000", "113440.037000", "113440.041000", "113440.044000", "113440.048000", "113440.052000", "113440.055000", "113440.059000"],
