{
  "AcquisitionMatrixPE": 104,
  "AcquisitionNumber": 1,
  "AcquisitionTime": "11:23:41.917500",
  "BandwidthPerPixelPhaseEncode": 17.17,
  "BaseResolution": 104,
  "BodyPartExamined": "BRAIN",
  "CoilString": "HC1-7;NC1_2",
  "ConsistencyInfo": "N4_VE11C_LATEST_20160120",
  "ConversionSoftware": "dcm2niix",
  "ConversionSoftwareVersion": "v1.0.20190902",
  "DerivedVendorReportedEchoSpacing": 0.000560011,
  "DeviceSerialNumber": "167006",
  "DwellTime": 2.1e-06,
  "EchoTime": 0.037,
  "EchoTrainLength": 104,
  "EffectiveEchoSpacing": 0.000560011,
  "FlipAngle": 52,
  "ImageComments": "Unaliased_MB4_PE3_LB",
  "ImageOrientationPatientDICOM": [0.995852, 0.073271, 0.0539457, -0.0563742, 0.962247, -0.266276],
  "ImageType": [
    "ORIGINAL",
    "PRIMARY",
    "M",
    "MB",
    "ND",
    "MOSAIC"
],
  "ImagingFrequency": 123.259,
  "InPlanePhaseEncodingDirectionDICOM": "COL",
  "InstitutionAddress": "Chemin_Queen-Mary_4565_Montreal_District_CA_H3W_1W5",
  "InstitutionName": "IUGM",
  "InstitutionalDepartmentName": "Department",
  "MRAcquisitionType": "2D",
  "MagneticFieldStrength": 3,
  "Manufacturer": "Siemens",
  "ManufacturersModelName": "Prisma_fit",
  "Modality": "MR",
  "MultibandAccelerationFactor": 4,
  "PartialFourier": 1,
  "PatientPosition": "HFS",
  "PercentPhaseFOV": 100,
  "PhaseEncodingDirection": "j",
  "PhaseEncodingSteps": 104,
  "PhaseResolution": 1,
  "PixelBandwidth": 2290,
  "ProcedureStepDescription": "games_shinobi",
  "ProtocolName": "func_task-shinobi_run-2",
  "PulseSequenceDetails": "%CustomerSeq%_cmrr_mbep2d_bold",
  "ReceiveCoilActiveElements": "HC1-7;NC1,2",
  "ReceiveCoilName": "HeadNeck_64",
  "ReconMatrixPE": 104,
  "RepetitionTime": 1.49,
  "SAR": 0.0396941,
  "ScanOptions": "FS",
  "ScanningSequence": "EP",
  "SequenceName": "epfid2d1_104",
  "SequenceVariant": "SK_SS",
  "SeriesDescription": "func_task-shinobi_run-2",
  "SeriesNumber": 15,
  "ShimSetting": [632, -7217, -8828, 657, 69, -30, 102, -9],
  "SliceThickness": 2,
  "SliceTiming": [0, 0.7825, 0.0975, 0.8825, 0.195, 0.98, 0.2925, 1.0775, 0.3925, 1.175, 0.49, 1.2725, 0.5875, 1.3725, 0.685, 0, 0.7825, 0.0975, 0.8825, 0.195, 0.98, 0.2925, 1.0775, 0.3925, 1.175, 0.49, 1.2725, 0.5875, 1.3725, 0.685, 0, 0.7825, 0.0975, 0.8825, 0.195, 0.98, 0.2925, 1.0775, 0.3925, 1.175, 0.49, 1.2725, 0.5875, 1.3725, 0.685, 0, 0.7825, 0.0975, 0.8825, 0.195, 0.98, 0.2925, 1.0775, 0.3925, 1.175, 0.49, 1.2725, 0.5875, 1.3725, 0.685],
  "SoftwareVersions": "syngo_MR_E11",
  "SpacingBetweenSlices": 2,
  "StationName": "MRC35049",
  "TaskName": "shinobi",
  "TotalReadoutTime": 0.0576811,
  "TxRefAmp": 247.376,
  "WipMemBlock": "29caa988-bc8a-405d-8d6d-e92d99faf95e||Sequence: R016 ve11c/master r/e634e98; Dec 19 2017 11:00:25 by eja",
  "dcmmeta_affine": [
    [-1.991703987121582, -0.11274837702512741, 0.1428387463092804, 108.36366271972656],
    [-0.14654195308685303, 1.9244939088821411, -0.5242599844932556, -58.23284149169922],
    [0.10789141058921814, 0.5325512886047363, 1.9247723817825317, -55.97157287597656],
    [0.0, 0.0, 0.0, 1.0]
],
  "dcmmeta_reorient_transform": [
    [0.0, -1.0, 0.0, 103.0],
    [1.0, 0.0, 0.0, 0.0],
    [0.0, 0.0, 1.0, 0.0],
    [0.0, 0.0, 0.0, 1.0]
],
  "dcmmeta_shape": [104, 104, 60, 461],
  "dcmmeta_slice_dim": 2,
  "dcmmeta_version": 0.6,
  "global": {
    "const": {
      "AcquisitionMatrix": [104, 0, 0, 104],
      "AngioFlag": "N",
      "BitsAllocated": 16,
      "BitsStored": 16,
      "BodyPartExamined": "BRAIN",
      "Columns": 832,
      "EchoNumbers": 1,
      "EchoTime": 37.0,
      "EchoTrainLength": 104,
      "FlipAngle": 52.0,
      "HighBit": 15,
      "ImageOrientationPatient": [0.99585200931077, 0.07327097863069, 0.05394570642967, -0.0563741880897, 0.96224696676968, -0.2662756576553],
      "ImagePositionPatient": [-780.6904353947, -893.84709603942, 153.45741811664],
      "ImageType": [
        "ORIGINAL",
        "PRIMARY",
        "M",
        "MB",
        "ND",
        "MOSAIC"
],
      "ImagedNucleus": "1H",
      "ImagingFrequency": 123.259021,
      "InPlanePhaseEncodingDirection": "COL",
      "MRAcquisitionType": "2D",
      "MagneticFieldStrength": 3.0,
      "Manufacturer": "SIEMENS",
      "ManufacturerModelName": "Prisma_fit",
      "Modality": "MR",
      "NumberOfAverages": 1.0,
      "NumberOfPhaseEncodingSteps": 104,
      "PercentPhaseFieldOfView": 100.0,
      "PercentSampling": 100.0,
      "PerformedProcedureStepStartTime": "105608.942000",
      "PhotometricInterpretation": "MONOCHROME2",
      "PixelBandwidth": 2290.0,
      "PixelRepresentation": 0,
      "PixelSpacing": [2.0, 2.0],
      "ProtocolName": "func_task-shinobi_run-2",
      "RepetitionTime": 1490.0,
      "Rows": 832,
      "SAR": 0.03969410519573,
      "SamplesPerPixel": 1,
      "ScanOptions": "FS",
      "ScanningSequence": "EP",
      "SequenceName": "epfid2d1_104",
      "SequenceVariant": [
        "SK",
        "SS"
],
      "SeriesDescription": "func_task-shinobi_run-2",
      "SeriesNumber": 15,
      "SeriesTime": "112516.022000",
      "SliceLocation": -30.862426407115,
      "SliceThickness": 2.0,
      "SmallestImagePixelValue": 0,
      "SoftwareVersions": "syngo MR E11",
      "SpacingBetweenSlices": 1.9999999908039,
      "SpecificCharacterSet": "ISO_IR 100",
      "StudyID": "1",
      "StudyTime": "105608.855000",
      "TransmitCoilName": "Body",
      "VariableFlipAngleFlag": "N",
      "WindowCenterWidthExplanation": "Algo1",
      "dBdt": 0.0},
    "slices": {}
  },
  "time": {
    "samples": {
      "AcquisitionNumber": [1, 2, 3, 4, 5, 6, 7, 8, 9, 10, 11, 12, 13, 14, 15, 16, 17, 18, 19, 20, 21, 22, 23, 24, 25, 26, 27, 28, 29, 30, 31, 32, 33, 34, 35, 36, 37, 38, 39, 40, 41, 42, 43, 44, 45, 46, 47, 48, 49, 50, 51, 52, 53, 54, 55, 56, 57, 58, 59, 60, 61, 62, 63, 64, 65, 66, 67, 68, 69, 70, 71, 72, 73, 74, 75, 76, 77, 78, 79, 80, 81, 82, 83, 84, 85, 86, 87, 88, 89, 90, 91, 92, 93, 94, 95, 96, 97, 98, 99, 100, 101, 102, 103, 104, 105, 106, 107, 108, 109, 110, 111, 112, 113, 114, 115, 116, 117, 118, 119, 120, 121, 122, 123, 124, 125, 126, 127, 128, 129, 130, 131, 132, 133, 134, 135, 136, 137, 138, 139, 140, 141, 142, 143, 144, 145, 146, 147, 148, 149, 150, 151, 152, 153, 154, 155, 156, 157, 158, 159, 160, 161, 162, 163, 164, 165, 166, 167, 168, 169, 170, 171, 172, 173, 174, 175, 176, 177, 178, 179, 180, 181, 182, 183, 184, 185, 186, 187, 188, 189, 190, 191, 192, 193, 194, 195, 196, 197, 198, 199, 200, 201, 202, 203, 204, 205, 206, 207, 208, 209, 210, 211, 212, 213, 214, 215, 216, 217, 218, 219, 220, 221, 222, 223, 224, 225, 226, 227, 228, 229, 230, 231, 232, 233, 234, 235, 236, 237, 238, 239, 240, 241, 242, 243, 244, 245, 246, 247, 248, 249, 250, 251, 252, 253, 254, 255, 256, 257, 258, 259, 260, 261, 262, 263, 264, 265, 266, 267, 268, 269, 270, 271, 272, 273, 274, 275, 276, 277, 278, 279, 280, 281, 282, 283, 284, 285, 286, 287, 288, 289, 290, 291, 292, 293, 294, 295, 296, 297, 298, 299, 300, 301, 302, 303, 304, 305, 306, 307, 308, 309, 310, 311, 312, 313, 314, 315, 316, 317, 318, 319, 320, 321, 322, 323, 324, 325, 326, 327, 328, 329, 330, 331, 332, 333, 334, 335, 336, 337, 338, 339, 340, 341, 342, 343, 344, 345, 346, 347, 348, 349, 350, 351, 352, 353, 354, 355, 356, 357, 358, 359, 360, 361, 362, 363, 364, 365, 366, 367, 368, 369, 370, 371, 372, 373, 374, 375, 376, 377, 378, 379, 380, 381, 382, 383, 384, 385, 386, 387, 388, 389, 390, 391, 392, 393, 394, 395, 396, 397, 398, 399, 400, 401, 402, 403, 404, 405, 406, 407, 408, 409, 410, 411, 412, 413, 414, 415, 416, 417, 418, 419, 420, 421, 422, 423, 424, 425, 426, 427, 428, 429, 430, 431, 432, 433, 434, 435, 436, 437, 438, 439, 440, 441, 442, 443, 444, 445, 446, 447, 448, 449, 450, 451, 452, 453, 454, 455, 456, 457, 458, 459, 460, 461],
      "AcquisitionTime": ["112341.917500", "112343.407500", "112344.897500", "112346.387500", "112347.877500", "112349.367500", "112350.857500", "112352.347500", "112353.837500", "112355.327500", "112356.817500", "112358.307500", "112359.797500", "112401.287500", "112402.777500", "112404.267500", "112405.757500", "112407.247500", "112408.737500", "112410.227500", "112411.717500", "112413.207500", "112414.697500", "112416.187500", "112417.677500", "112419.167500", "112420.657500", "112422.147500", "112423.637500", "112425.127500", "112426.617500", "112428.107500", "112429.597500", "112431.087500", "112432.577500", "112434.067500", "112435.557500", "112437.047500", "112438.537500", "112440.027500", "112441.517500", "112443.007500", "112444.497500", "112445.987500", "112447.477500", "112448.967500", "112450.457500", "112451.947500", "112453.437500", "112454.927500", "112456.417500", "112457.907500", "112459.397500", "112500.887500", "112502.377500", "112503.867500", "112505.357500", "112506.847500", "112508.337500", "112509.827500", "112511.317500", "112512.807500", "112514.297500", "112515.787500", "112517.277500", "112518.767500", "112520.257500", "112521.747500", "112523.237500", "112524.727500", "112526.217500", "112527.707500", "112529.197500", "112530.687500", "112532.177500", "112533.667500", "112535.157500", "112536.647500", "112538.137500", "112539.627500", "112541.117500", "112542.607500", "112544.097500", "112545.587500", "112547.077500", "112548.567500", "112550.057500", "112551.547500", "112553.037500", "112554.527500", "112556.017500", "112557.507500", "112558.997500", "112600.487500", "112601.977500", "112603.467500", "112604.957500", "112606.447500", "112607.937500", "112609.427500", "112610.917500", "112612.407500", "112613.897500", "112615.387500", "112616.877500", "112618.367500", "112619.857500", "112621.347500", "112622.837500", "112624.327500", "112625.817500", "112627.307500", "112628.797500", "112630.287500", "112631.777500", "112633.267500", "112634.757500", "112636.247500", "112637.737500", "112639.227500", "112640.717500", "112642.207500", "112643.697500", "112645.187500", "112646.677500", "112648.167500", "112649.657500", "112651.147500", "112652.637500", "112654.127500", "112655.617500", "112657.107500", "112658.597500", "112700.087500", "112701.577500", "112703.067500", "112704.557500", "112706.047500", "112707.537500", "112709.027500", "112710.517500", "112712.007500", "112713.497500", "112714.987500", "112716.477500", "112717.967500", "112719.457500", "112720.947500", "112722.437500", "112723.927500", "112725.417500", "112726.907500", "112728.397500", "112729.887500", "112731.377500", "112732.867500", "112734.357500", "112735.847500", "112737.337500", "112738.827500", "112740.317500", "112741.807500", "112743.297500", "112744.787500", "112746.277500", "112747.767500", "112749.257500", "112750.747500", "112752.237500", "112753.727500", "112755.217500", "112756.707500", "112758.197500", "112759.687500", "112801.177500", "112802.667500", "112804.157500", "112805.647500", "112807.137500", "112808.627500", "112810.117500", "112811.607500", "112813.097500", "112814.587500", "112816.077500", "112817.567500", "112819.057500", "112820.547500", "112822.037500", "112823.527500", "112825.017500", "112826.507500", "112827.997500", "112829.487500", "112830.977500", "112832.467500", "112833.957500", "112835.447500", "112836.937500", "112838.427500", "112839.917500", "112841.407500", "112842.897500", "112844.387500", "112845.877500", "112847.367500", "112848.857500", "112850.347500", "112851.837500", "112853.327500", "112854.817500", "112856.307500", "112857.797500", "112859.287500", "112900.777500", "112902.267500", "112903.757500", "112905.247500", "112906.737500", "112908.227500", "112909.717500", "112911.207500", "112912.697500", "112914.187500", "112915.677500", "112917.167500", "112918.657500", "112920.147500", "112921.637500", "112923.127500", "112924.617500", "112926.107500", "112927.597500", "112929.087500", "112930.577500", "112932.067500", "112933.557500", "112935.047500", "112936.537500", "112938.027500", "112939.517500", "112941.007500", "112942.497500", "112943.987500", "112945.477500", "112946.967500", "112948.457500", "112949.947500", "112951.437500", "112952.927500", "112954.417500", "112955.907500", "112957.397500", "112958.887500", "113000.377500", "113001.867500", "113003.357500", "113004.847500", "113006.337500", "113007.827500", "113009.317500", "113010.807500", "113012.297500", "113013.787500", "113015.277500", "113016.767500", "113018.257500", "113019.747500", "113021.237500", "113022.727500", "113024.217500", "113025.707500", "113027.197500", "113028.687500", "113030.177500", "113031.667500", "113033.157500", "113034.647500", "113036.137500", "113037.627500", "113039.117500", "113040.607500", "113042.097500", "113043.587500", "113045.077500", "113046.567500", "113048.057500", "113049.547500", "113051.037500", "113052.527500", "113054.017500", "113055.507500", "113056.997500", "113058.487500", "113059.977500", "113101.467500", "113102.957500", "113104.447500", "113105.937500", "113107.427500", "113108.917500", "113110.407500", "113111.897500", "113113.387500", "113114.877500", "113116.367500", "113117.857500", "113119.347500", "113120.837500", "113122.327500", "113123.817500", "113125.307500", "113126.797500", "113128.287500", "113129.777500", "113131.267500", "113132.757500", "113134.247500", "113135.737500", "113137.227500", "113138.717500", "113140.207500", "113141.697500", "113143.187500", "113144.677500", "113146.167500", "113147.657500", "113149.147500", "113150.637500", "113152.127500", "113153.617500", "113155.107500", "113156.597500", "113158.087500", "113159.577500", "113201.067500", "113202.557500", "113204.047500", "113205.537500", "113207.027500", "113208.517500", "113210.007500", "113211.497500", "113212.987500", "113214.477500", "113215.967500", "113217.457500", "113218.947500", "113220.437500", "113221.927500", "113223.417500", "113224.907500", "113226.397500", "113227.887500", "113229.377500", "113230.867500", "113232.357500", "113233.847500", "113235.337500", "113236.827500", "113238.317500", "113239.807500", "113241.297500", "113242.787500", "113244.277500", "113245.767500", "113247.257500", "113248.747500", "113250.237500", "113251.727500", "113253.217500", "113254.707500", "113256.197500", "113257.687500", "113259.177500", "113300.667500", "113302.157500", "113303.647500", "113305.137500", "113306.627500", "113308.117500", "113309.607500", "113311.097500", "113312.587500", "113314.077500", "113315.567500", "113317.057500", "113318.547500", "113320.037500", "113321.527500", "113323.017500", "113324.507500", "113325.997500", "113327.487500", "113328.977500", "113330.467500", "113331.957500", "113333.447500", "113334.937500", "113336.427500", "113337.917500", "113339.407500", "113340.897500", "113342.387500", "113343.877500", "113345.367500", "113346.857500", "113348.347500", "113349.837500", "113351.327500", "113352.817500", "113354.307500", "113355.797500", "113357.287500", "113358.777500", "113400.267500", "113401.757500", "113403.247500", "113404.737500", "113406.227500", "113407.717500", "113409.207500", "113410.697500", "113412.187500", "113413.677500", "113415.167500", "113416.657500", "113418.147500", "113419.637500", "113421.127500", "113422.617500", "113424.107500", "113425.597500", "113427.087500", "113428.577500", "113430.067500", "113431.557500", "113433.047500", "113434.537500", "113436.027500", "113437.517500", "113439.007500", "113440.497500", "113441.987500", "113443.477500", "113444.967500", "113446.457500", "113447.947500", "113449.437500", "113450.927500", "113452.417500", "113453.907500", "113455.397500", "113456.887500", "113458.377500", "113459.867500", "113501.357500", "113502.847500", "113504.337500", "113505.827500", "113507.317500"],
      "ContentTime": ["112516.025000", "112516.028000", "112516.031000", "112516.034000", "112516.036000", "112516.039000", "112516.042000", "112516.045000", "112516.048000", "112516.051000", "112516.054000", "112516.056000", "112516.059000", "112516.062000", "112516.065000", "112516.068000", "112516.080000", "112516.083000", "112516.086000", "112516.088000", "112516.091000", "112516.094000", "112516.097000", "112516.100000", "112516.102000", "112516.107000", "112516.110000", "112516.113000", "112516.116000", "112516.119000", "112516.122000", "112516.124000", "112516.127000", "112516.130000", "112516.133000", "112516.136000", "112516.139000", "112516.142000", "112535.993000", "112535.996000", "112536.000000", "112536.003000", "112536.005000", "112536.008000", "112536.011000", "112536.014000", "112536.017000", "112536.020000", "112536.022000", "112536.025000", "112536.028000", "112536.031000", "112536.041000", "112536.044000", "112536.047000", "112536.050000", "112536.053000", "112536.056000", "112536.059000", "112555.992000", "112555.995000", "112555.998000", "112556.002000", "112556.004000", "112556.007000", "112556.010000", "112556.013000", "112556.016000", "112556.019000", "112556.021000", "112556.024000", "112556.027000", "112556.030000", "112556.033000", "112556.036000", "112556.038000", "112556.041000", "112556.044000", "112556.047000", "112615.992000", "112615.995000", "112615.998000", "112616.002000", "112616.004000", "112616.007000", "112616.010000", "112616.013000", "112616.016000", "112616.018000", "112616.021000", "112616.024000", "112616.027000", "112616.030000", "112616.032000", "112616.035000", "112616.038000", "112616.041000", "112616.043000", "112616.046000", "112655.992000", "112655.995000", "112655.998000", "112656.002000", "112656.004000", "112656.007000", "112656.010000", "112656.013000", "112656.016000", "112656.019000", "112656.022000", "112656.025000", "112656.027000", "112656.030000", "112656.033000", "112656.036000", "112656.039000", "112656.042000", "112656.045000", "112656.047000", "112656.050000", "112656.053000", "112656.066000", "112656.069000", "112656.072000", "112656.074000", "112656.077000", "112656.080000", "112656.083000", "112656.086000", "112735.993000", "112735.996000", "112736.000000", "112736.003000", "112736.005000", "112736.008000", "112736.011000", "112736.014000", "112736.017000", "112736.019000", "112736.022000", "112736.025000", "112736.028000", "112736.031000", "112736.034000", "112736.036000", "112736.039000", "112736.042000", "112736.045000", "112736.048000", "112736.050000", "112736.053000", "112736.056000", "112736.059000", "112736.062000", "112736.065000", "112736.067000", "112815.992000", "112815.995000", "112815.998000", "112816.002000", "112816.004000", "112816.007000", "112816.010000", "112816.013000", "112816.016000", "112816.019000", "112816.021000", "112816.024000", "112816.027000", "112816.030000", "112816.033000", "112816.036000", "112816.042000", "112816.045000", "112816.048000", "112816.051000", "112816.054000", "112816.056000", "112816.059000", "112816.062000", "112816.065000", "112816.068000", "112816.071000", "112855.992000", "112855.995000", "112855.998000", "112856.002000", "112856.004000", "112856.007000", "112856.010000", "112856.013000", "112856.016000", "112856.018000", "112856.021000", "112856.024000", "112856.027000", "112856.030000", "112856.033000", "112856.035000", "112856.038000", "112856.041000", "112856.044000", "112856.047000", "112856.050000", "112856.052000", "112856.055000", "112856.058000", "112856.061000", "112856.064000", "112856.066000", "112935.993000", "112935.996000", "112936.000000", "112936.003000", "112936.005000", "112936.008000", "112936.011000", "112936.014000", "112936.018000", "112936.021000", "112936.024000", "112936.027000", "112936.030000", "112936.033000", "112936.036000", "112936.039000", "112936.041000", "112936.044000", "112936.047000", "112936.050000", "112936.052000", "112936.055000", "112936.058000", "112936.061000", "112936.072000", "112936.075000", "113015.992000", "113015.995000", "113015.998000", "113016.002000", "113016.004000", "113016.007000", "113016.010000", "113016.013000", "113016.016000", "113016.019000", "113016.021000", "113016.024000", "113016.027000", "113016.030000", "113016.033000", "113016.036000", "113016.038000", "113016.041000", "113016.044000", "113016.047000", "113016.050000", "113016.052000", "113016.055000", "113016.058000", "113016.061000", "113016.064000", "113016.067000", "113055.992000", "113055.995000", "113055.998000", "113056.001000", "113056.004000", "113056.007000", "113056.010000", "113056.013000", "113056.016000", "113056.018000", "113056.021000", "113056.024000", "113056.027000", "113056.030000", "113056.032000", "113056.035000", "113056.038000", "113056.041000", "113056.044000", "113056.046000", "113056.049000", "113056.052000", "113056.055000", "113056.058000", "113056.060000", "113056.063000", "113056.066000", "113135.992000", "113135.995000", "113135.998000", "113136.002000", "113136.005000", "113136.007000", "113136.010000", "113136.013000", "113136.016000", "113136.019000", "113136.022000", "113136.024000", "113136.027000", "113136.030000", "113136.033000", "113136.036000", "113136.039000", "113136.041000", "113136.044000", "113136.047000", "113136.050000", "113136.053000", "113136.055000", "113136.058000", "113136.061000", "113136.064000", "113136.067000", "113215.993000", "113215.996000", "113216.000000", "113216.003000", "113216.006000", "113216.008000", "113216.011000", "113216.014000", "113216.017000", "113216.020000", "113216.023000", "113216.026000", "113216.028000", "113216.031000", "113216.034000", "113216.037000", "113216.040000", "113216.042000", "113216.045000", "113216.048000", "113216.051000", "113216.054000", "113216.057000", "113216.059000", "113216.062000", "113216.065000", "113216.068000", "113255.992000", "113255.995000", "113255.998000", "113256.002000", "113256.005000", "113256.007000", "113256.010000", "113256.013000", "113256.016000", "113256.019000", "113256.022000", "113256.025000", "113256.027000", "113256.030000", "113256.033000", "113256.036000", "113256.039000", "113256.042000", "113256.045000", "113256.047000", "113256.050000", "113256.053000", "113256.056000", "113256.059000", "113256.061000", "113256.064000", "113256.067000", "113335.992000", "113335.995000", "113335.998000", "113336.002000", "113336.004000", "113336.007000", "113336.010000", "113336.013000", "113336.016000", "113336.019000", "113336.021000", "113336.024000", "113336.027000", "113336.030000", "113336.033000", "113336.035000", "113336.038000", "113336.041000", "113336.044000", "113336.047000", "113336.049000", "113336.052000", "113336.055000", "113336.058000", "113336.061000", "113336.064000", "113336.066000", "113415.993000", "113415.997000", "113416.001000", "113416.004000", "113416.007000", "113416.010000", "113416.012000", "113416.015000", "113416.018000", "113416.021000", "113416.024000", "113416.027000", "113416.029000", "113416.032000", "113416.035000", "113416.038000", "113416.041000", "113416.044000", "113416.047000", "113416.050000", "113416.062000", "113416.064000", "113416.067000", "113416.070000", "113416.073000", "113416.076000", "113455.992000", "113455.995000", "113455.998000", "113456.002000", "113456.005000", "113456.008000", "113456.010000", "113456.013000", "113456.016000", "113456.019000", "113456.022000", "113456.025000", "113456.027000", "113456.030000", "113456.033000", "113456.036000", "113456.039000", "113456.041000", "113456.044000", "113456.047000", "113456.050000", "113456.053000", "113456.055000", "113456.058000", "113456.061000", "113456.064000", "113456.067000", "113509.994000", "113509.997000", "113510.001000", "113510.004000", "113510.008000", "113510.011000", "113510.014000", "113510.016000", "113510.019000", "113510.022000"],
