{
  "AcquisitionMatrixPE": 104,
  "AcquisitionNumber": 1,
  "AcquisitionTime": "11:35:40.150000",
  "BandwidthPerPixelPhaseEncode": 17.17,
  "BaseResolution": 104,
  "BodyPartExamined": "BRAIN",
  "CoilString": "HC1-7;NC1_2",
  "ConsistencyInfo": "N4_VE11C_LATEST_20160120",
  "ConversionSoftware": "dcm2niix",
  "ConversionSoftwareVersion": "v1.0.20190902",
  "DerivedVendorReportedEchoSpacing": 0.000560011,
  "DeviceSerialNumber": "167006",
  "DwellTime": 2.1e-06,
  "EchoTime": 0.037,
  "EchoTrainLength": 104,
  "EffectiveEchoSpacing": 0.000560011,
  "FlipAngle": 52,
  "ImageComments": "Unaliased_MB4_PE3_LB",
  "ImageOrientationPatientDICOM": [0.995852, 0.073271, 0.0539457, -0.0563742, 0.962247, -0.266276],
  "ImageType": [
    "ORIGINAL",
    "PRIMARY",
    "M",
    "MB",
    "ND",
    "MOSAIC"
],
  "ImagingFrequency": 123.259,
  "InPlanePhaseEncodingDirectionDICOM": "COL",
  "InstitutionAddress": "Chemin_Queen-Mary_4565_Montreal_District_CA_H3W_1W5",
  "InstitutionName": "IUGM",
  "InstitutionalDepartmentName": "Department",
  "MRAcquisitionType": "2D",
  "MagneticFieldStrength": 3,
  "Manufacturer": "Siemens",
  "ManufacturersModelName": "Prisma_fit",
  "Modality": "MR",
  "MultibandAccelerationFactor": 4,
  "PartialFourier": 1,
  "PatientPosition": "HFS",
  "PercentPhaseFOV": 100,
  "PhaseEncodingDirection": "j",
  "PhaseEncodingSteps": 104,
  "PhaseResolution": 1,
  "PixelBandwidth": 2290,
  "ProcedureStepDescription": "games_shinobi",
  "ProtocolName": "func_task-shinobi_run-3",
  "PulseSequenceDetails": "%CustomerSeq%_cmrr_mbep2d_bold",
  "ReceiveCoilActiveElements": "HC1-7;NC1,2",
  "ReceiveCoilName": "HeadNeck_64",
  "ReconMatrixPE": 104,
  "RepetitionTime": 1.49,
  "SAR": 0.0396941,
  "ScanOptions": "FS",
  "ScanningSequence": "EP",
  "SequenceName": "epfid2d1_104",
  "SequenceVariant": "SK_SS",
  "SeriesDescription": "func_task-shinobi_run-3",
  "SeriesNumber": 17,
  "ShimSetting": [632, -7217, -8828, 657, 69, -30, 102, -9],
  "SliceThickness": 2,
  "SliceTiming": [0, 0.785, 0.0975, 0.8825, 0.1975, 0.98, 0.295, 1.0775, 0.3925, 1.1775, 0.49, 1.275, 0.5875, 1.3725, 0.6875, 0, 0.785, 0.0975, 0.8825, 0.1975, 0.98, 0.295, 1.0775, 0.3925, 1.1775, 0.49, 1.275, 0.5875, 1.3725, 0.6875, 0, 0.785, 0.0975, 0.8825, 0.1975, 0.98, 0.295, 1.0775, 0.3925, 1.1775, 0.49, 1.275, 0.5875, 1.3725, 0.6875, 0, 0.785, 0.0975, 0.8825, 0.1975, 0.98, 0.295, 1.0775, 0.3925, 1.1775, 0.49, 1.275, 0.5875, 1.3725, 0.6875],
  "SoftwareVersions": "syngo_MR_E11",
  "SpacingBetweenSlices": 2,
  "StationName": "MRC35049",
  "TaskName": "shinobi",
  "TotalReadoutTime": 0.0576811,
  "TxRefAmp": 247.376,
  "WipMemBlock": "44b3444f-cd8c-47c9-bccb-5c10b4ca0d04||Sequence: R016 ve11c/master r/e634e98; Dec 19 2017 11:00:25 by eja",
  "dcmmeta_affine": [
    [-1.991703987121582, -0.11274837702512741, 0.1428387463092804, 108.36366271972656],
    [-0.14654195308685303, 1.9244939088821411, -0.5242599844932556, -58.23284149169922],
    [0.10789141058921814, 0.5325512886047363, 1.9247723817825317, -55.97157287597656],
    [0.0, 0.0, 0.0, 1.0]
],
  "dcmmeta_reorient_transform": [
    [0.0, -1.0, 0.0, 103.0],
    [1.0, 0.0, 0.0, 0.0],
    [0.0, 0.0, 1.0, 0.0],
    [0.0, 0.0, 0.0, 1.0]
],
  "dcmmeta_shape": [104, 104, 60, 508],
  "dcmmeta_slice_dim": 2,
  "dcmmeta_version": 0.6,
  "global": {
    "const": {
      "AcquisitionMatrix": [104, 0, 0, 104],
      "AngioFlag": "N",
      "BitsAllocated": 16,
      "BitsStored": 16,
      "BodyPartExamined": "BRAIN",
      "Columns": 832,
      "EchoNumbers": 1,
      "EchoTime": 37.0,
      "EchoTrainLength": 104,
      "FlipAngle": 52.0,
      "HighBit": 15,
      "ImageOrientationPatient": [0.99585200931077, 0.07327097863069, 0.05394570642967, -0.0563741880897, 0.96224696676968, -0.2662756576553],
      "ImagePositionPatient": [-780.6904353947, -893.84709603942, 153.45741811664],
      "ImageType": [
        "ORIGINAL",
        "PRIMARY",
        "M",
        "MB",
        "ND",
        "MOSAIC"
],
      "ImagedNucleus": "1H",
      "ImagingFrequency": 123.259028,
      "InPlanePhaseEncodingDirection": "COL",
      "MRAcquisitionType": "2D",
      "MagneticFieldStrength": 3.0,
      "Manufacturer": "SIEMENS",
      "ManufacturerModelName": "Prisma_fit",
      "Modality": "MR",
      "NumberOfAverages": 1.0,
      "NumberOfPhaseEncodingSteps": 104,
      "PercentPhaseFieldOfView": 100.0,
      "PercentSampling": 100.0,
      "PerformedProcedureStepStartTime": "105608.942000",
      "PhotometricInterpretation": "MONOCHROME2",
      "PixelBandwidth": 2290.0,
      "PixelRepresentation": 0,
      "PixelSpacing": [2.0, 2.0],
      "ProtocolName": "func_task-shinobi_run-3",
      "RepetitionTime": 1490.0,
      "Rows": 832,
      "SAR": 0.03969410519573,
      "SamplesPerPixel": 1,
      "ScanOptions": "FS",
      "ScanningSequence": "EP",
      "SequenceName": "epfid2d1_104",
      "SequenceVariant": [
        "SK",
        "SS"
],
      "SeriesDescription": "func_task-shinobi_run-3",
      "SeriesNumber": 17,
      "SeriesTime": "113657.224000",
      "SliceLocation": -30.862426407115,
      "SliceThickness": 2.0,
      "SmallestImagePixelValue": 0,
      "SoftwareVersions": "syngo MR E11",
      "SpacingBetweenSlices": 1.9999999908039,
      "SpecificCharacterSet": "ISO_IR 100",
      "StudyID": "1",
      "StudyTime": "105608.855000",
      "TransmitCoilName": "Body",
      "VariableFlipAngleFlag": "N",
      "WindowCenterWidthExplanation": "Algo1",
      "dBdt": 0.0},
    "slices": {}
  },
  "time": {
    "samples": {
      "AcquisitionNumber": [1, 2, 3, 4, 5, 6, 7, 8, 9, 10, 11, 12, 13, 14, 15, 16, 17, 18, 19, 20, 21, 22, 23, 24, 25, 26, 27, 28, 29, 30, 31, 32, 33, 34, 35, 36, 37, 38, 39, 40, 41, 42, 43, 44, 45, 46, 47, 48, 49, 50, 51, 52, 53, 54, 55, 56, 57, 58, 59, 60, 61, 62, 63, 64, 65, 66, 67, 68, 69, 70, 71, 72, 73, 74, 75, 76, 77, 78, 79, 80, 81, 82, 83, 84, 85, 86, 87, 88, 89, 90, 91, 92, 93, 94, 95, 96, 97, 98, 99, 100, 101, 102, 103, 104, 105, 106, 107, 108, 109, 110, 111, 112, 113, 114, 115, 116, 117, 118, 119, 120, 121, 122, 123, 124, 125, 126, 127, 128, 129, 130, 131, 132, 133, 134, 135, 136, 137, 138, 139, 140, 141, 142, 143, 144, 145, 146, 147, 148, 149, 150, 151, 152, 153, 154, 155, 156, 157, 158, 159, 160, 161, 162, 163, 164, 165, 166, 167, 168, 169, 170, 171, 172, 173, 174, 175, 176, 177, 178, 179, 180, 181, 182, 183, 184, 185, 186, 187, 188, 189, 190, 191, 192, 193, 194, 195, 196, 197, 198, 199, 200, 201, 202, 203, 204, 205, 206, 207, 208, 209, 210, 211, 212, 213, 214, 215, 216, 217, 218, 219, 220, 221, 222, 223, 224, 225, 226, 227, 228, 229, 230, 231, 232, 233, 234, 235, 236, 237, 238, 239, 240, 241, 242, 243, 244, 245, 246, 247, 248, 249, 250, 251, 252, 253, 254, 255, 256, 257, 258, 259, 260, 261, 262, 263, 264, 265, 266, 267, 268, 269, 270, 271, 272, 273, 274, 275, 276, 277, 278, 279, 280, 281, 282, 283, 284, 285, 286, 287, 288, 289, 290, 291, 292, 293, 294, 295, 296, 297, 298, 299, 300, 301, 302, 303, 304, 305, 306, 307, 308, 309, 310, 311, 312, 313, 314, 315, 316, 317, 318, 319, 320, 321, 322, 323, 324, 325, 326, 327, 328, 329, 330, 331, 332, 333, 334, 335, 336, 337, 338, 339, 340, 341, 342, 343, 344, 345, 346, 347, 348, 349, 350, 351, 352, 353, 354, 355, 356, 357, 358, 359, 360, 361, 362, 363, 364, 365, 366, 367, 368, 369, 370, 371, 372, 373, 374, 375, 376, 377, 378, 379, 380, 381, 382, 383, 384, 385, 386, 387, 388, 389, 390, 391, 392, 393, 394, 395, 396, 397, 398, 399, 400, 401, 402, 403, 404, 405, 406, 407, 408, 409, 410, 411, 412, 413, 414, 415, 416, 417, 418, 419, 420, 421, 422, 423, 424, 425, 426, 427, 428, 429, 430, 431, 432, 433, 434, 435, 436, 437, 438, 439, 440, 441, 442, 443, 444, 445, 446, 447, 448, 449, 450, 451, 452, 453, 454, 455, 456, 457, 458, 459, 460, 461, 462, 463, 464, 465, 466, 467, 468, 469, 470, 471, 472, 473, 474, 475, 476, 477, 478, 479, 480, 481, 482, 483, 484, 485, 486, 487, 488, 489, 490, 491, 492, 493, 494, 495, 496, 497, 498, 499, 500, 501, 502, 503, 504, 505, 506, 507, 508],
      "AcquisitionTime": ["113540.150000", "113541.640000", "113543.130000", "113544.620000", "113546.110000", "113547.600000", "113549.090000", "113550.580000", "113552.070000", "113553.560000", "113555.050000", "113556.540000", "113558.030000", "113559.520000", "113601.010000", "113602.500000", "113603.990000", "113605.480000", "113606.970000", "113608.460000", "113609.950000", "113611.440000", "113612.930000", "113614.420000", "113615.910000", "113617.400000", "113618.890000", "113620.380000", "113621.870000", "113623.360000", "113624.850000", "113626.340000", "113627.830000", "113629.320000", "113630.810000", "113632.300000", "113633.790000", "113635.280000", "113636.770000", "113638.260000", "113639.750000", "113641.240000", "113642.730000", "113644.220000", "113645.710000", "113647.200000", "113648.690000", "113650.180000", "113651.670000", "113653.160000", "113654.650000", "113656.140000", "113657.630000", "113659.120000", "113700.610000", "113702.100000", "113703.590000", "113705.080000", "113706.570000", "113708.060000", "113709.550000", "113711.040000", "113712.530000", "113714.020000", "113715.510000", "113717.000000", "113718.490000", "113719.980000", "113721.470000", "113722.960000", "113724.450000", "113725.940000", "113727.430000", "113728.920000", "113730.410000", "113731.900000", "113733.390000", "113734.880000", "113736.370000", "113737.860000", "113739.350000", "113740.840000", "113742.330000", "113743.820000", "113745.310000", "113746.800000", "113748.290000", "113749.780000", "113751.270000", "113752.760000", "113754.250000", "113755.740000", "113757.230000", "113758.720000", "113800.210000", "113801.700000", "113803.190000", "113804.680000", "113806.170000", "113807.660000", "113809.150000", "113810.640000", "113812.130000", "113813.620000", "113815.110000", "113816.600000", "113818.090000", "113819.580000", "113821.070000", "113822.560000", "113824.050000", "113825.540000", "113827.030000", "113828.520000", "113830.010000", "113831.500000", "113832.990000", "113834.480000", "113835.970000", "113837.460000", "113838.950000", "113840.440000", "113841.930000", "113843.420000", "113844.910000", "113846.400000", "113847.890000", "113849.380000", "113850.870000", "113852.360000", "113853.850000", "113855.340000", "113856.830000", "113858.320000", "113859.810000", "113901.300000", "113902.790000", "113904.280000", "113905.770000", "113907.260000", "113908.750000", "113910.240000", "113911.730000", "113913.220000", "113914.710000", "113916.200000", "113917.690000", "113919.180000", "113920.670000", "113922.160000", "113923.650000", "113925.140000", "113926.630000", "113928.120000", "113929.610000", "113931.100000", "113932.590000", "113934.080000", "113935.570000", "113937.060000", "113938.550000", "113940.040000", "113941.530000", "113943.020000", "113944.510000", "113946.000000", "113947.490000", "113948.980000", "113950.470000", "113951.960000", "113953.450000", "113954.940000", "113956.430000", "113957.920000", "113959.410000", "114000.900000", "114002.390000", "114003.880000", "114005.370000", "114006.860000", "114008.350000", "114009.840000", "114011.330000", "114012.820000", "114014.310000", "114015.800000", "114017.290000", "114018.780000", "114020.270000", "114021.760000", "114023.250000", "114024.740000", "114026.230000", "114027.720000", "114029.210000", "114030.700000", "114032.190000", "114033.680000", "114035.170000", "114036.660000", "114038.150000", "114039.640000", "114041.130000", "114042.620000", "114044.110000", "114045.600000", "114047.090000", "114048.580000", "114050.070000", "114051.560000", "114053.050000", "114054.540000", "114056.030000", "114057.520000", "114059.010000", "114100.500000", "114101.990000", "114103.480000", "114104.970000", "114106.460000", "114107.950000", "114109.440000", "114110.930000", "114112.420000", "114113.910000", "114115.400000", "114116.890000", "114118.380000", "114119.870000", "114121.360000", "114122.850000", "114124.340000", "114125.830000", "114127.320000", "114128.810000", "114130.300000", "114131.790000", "114133.280000", "114134.770000", "114136.260000", "114137.750000", "114139.240000", "114140.730000", "114142.220000", "114143.710000", "114145.200000", "114146.690000", "114148.180000", "114149.670000", "114151.160000", "114152.650000", "114154.140000", "114155.630000", "114157.120000", "114158.610000", "114200.100000", "114201.590000", "114203.080000", "114204.570000", "114206.060000", "114207.550000", "114209.040000", "114210.530000", "114212.020000", "114213.510000", "114215.000000", "114216.490000", "114217.980000", "114219.470000", "114220.960000", "114222.450000", "114223.940000", "114225.430000", "114226.920000", "114228.410000", "114229.900000", "114231.390000", "114232.880000", "114234.370000", "114235.860000", "114237.350000", "114238.840000", "114240.330000", "114241.820000", "114243.310000", "114244.800000", "114246.290000", "114247.780000", "114249.270000", "114250.760000", "114252.250000", "114253.740000", "114255.230000", "114256.720000", "114258.210000", "114259.700000", "114301.190000", "114302.680000", "114304.170000", "114305.660000", "114307.150000", "114308.640000", "114310.130000", "114311.620000", "114313.110000", "114314.600000", "114316.090000", "114317.580000", "114319.070000", "114320.560000", "114322.050000", "114323.540000", "114325.030000", "114326.520000", "114328.010000", "114329.500000", "114330.990000", "114332.480000", "114333.970000", "114335.460000", "114336.950000", "114338.440000", "114339.930000", "114341.420000", "114342.910000", "114344.400000", "114345.890000", "114347.380000", "114348.870000", "114350.360000", "114351.850000", "114353.340000", "114354.830000", "114356.320000", "114357.810000", "114359.300000", "114400.790000", "114402.280000", "114403.770000", "114405.260000", "114406.750000", "114408.240000", "114409.730000", "114411.220000", "114412.710000", "114414.200000", "114415.690000", "114417.180000", "114418.670000", "114420.160000", "114421.650000", "114423.140000", "114424.630000", "114426.120000", "114427.610000", "114429.100000", "114430.590000", "114432.080000", "114433.570000", "114435.060000", "114436.550000", "114438.040000", "114439.530000", "114441.020000", "114442.510000", "114444.000000", "114445.490000", "114446.980000", "114448.470000", "114449.960000", "114451.450000", "114452.940000", "114454.430000", "114455.920000", "114457.410000", "114458.900000", "114500.390000", "114501.880000", "114503.370000", "114504.860000", "114506.350000", "114507.840000", "114509.330000", "114510.820000", "114512.310000", "114513.800000", "114515.290000", "114516.780000", "114518.270000", "114519.760000", "114521.250000", "114522.740000", "114524.230000", "114525.720000", "114527.210000", "114528.700000", "114530.190000", "114531.680000", "114533.170000", "114534.660000", "114536.150000", "114537.640000", "114539.130000", "114540.620000", "114542.110000", "114543.600000", "114545.090000", "114546.580000", "114548.070000", "114549.560000", "114551.050000", "114552.540000", "114554.030000", "114555.520000", "114557.010000", "114558.500000", "114559.990000", "114601.480000", "114602.970000", "114604.460000", "114605.950000", "114607.440000", "114608.930000", "114610.420000", "114611.910000", "114613.400000", "114614.890000", "114616.380000", "114617.870000", "114619.360000", "114620.850000", "114622.340000", "114623.830000", "114625.320000", "114626.810000", "114628.300000", "114629.790000", "114631.280000", "114632.770000", "114634.260000", "114635.750000", "114637.240000", "114638.730000", "114640.220000", "114641.710000", "114643.200000", "114644.690000", "114646.180000", "114647.670000", "114649.160000", "114650.650000", "114652.140000", "114653.630000", "114655.120000", "114656.610000", "114658.100000", "114659.590000", "114701.080000", "114702.570000", "114704.060000", "114705.550000", "114707.040000", "114708.530000", "114710.020000", "114711.510000", "114713.000000", "114714.490000", "114715.980000", "114717.470000", "114718.960000", "114720.450000", "114721.940000", "114723.430000", "114724.920000", "114726.410000", "114727.900000", "114729.390000", "114730.880000", "114732.370000", "114733.860000", "114735.350000", "114736.840000", "114738.330000", "114739.820000", "114741.310000", "114742.800000", "114744.290000", "114745.780000", "114747.270000", "114748.760000", "114750.250000", "114751.740000", "114753.230000", "114754.720000", "114756.210000", "114757.700000", "114759.190000", "114800.680000", "114802.170000", "114803.660000", "114805.150000", "114806.640000", "114808.130000", "114809.620000", "114811.110000", "114812.600000", "114814.090000", "114815.580000"],
      "ContentTime": ["113657.227000", "113657.230000", "113657.239000", "113657.242000", "113657.251000", "113657.254000", "113657.256000", "113657.259000", "113657.262000", "113657.265000", "113657.268000", "113657.271000", "113657.274000", "113657.276000", "113657.285000", "113657.288000", "113657.291000", "113657.294000", "113657.297000", "113657.299000", "113657.302000", "113657.305000", "113657.308000", "113717.200000", "113717.203000", "113717.206000", "113717.208000", "113717.211000", "113717.214000", "113717.217000", "113717.220000", "113717.223000", "113717.226000", "113717.229000", "113717.231000", "113717.234000", "113717.237000", "113717.240000", "113717.243000", "113717.246000", "113717.249000", "113717.252000", "113717.254000", "113737.199000", "113737.246000", "113737.249000", "113737.253000", "113737.257000", "113737.262000", "113737.265000", "113737.269000", "113737.272000", "113737.275000", "113737.278000", "113737.282000", "113737.285000", "113737.288000", "113737.291000", "113737.293000", "113737.296000", "113737.299000", "113737.302000", "113737.305000", "113757.199000", "113757.203000", "113757.206000", "113757.208000", "113757.211000", "113757.214000", "113757.217000", "113757.220000", "113757.223000", "113757.226000", "113757.229000", "113757.231000", "113757.234000", "113757.237000", "113757.240000", "113757.243000", "113757.246000", "113757.248000", "113757.251000", "113757.254000", "113817.199000", "113817.202000", "113817.205000", "113817.207000", "113817.210000", "113817.213000", "113817.216000", "113817.219000", "113817.221000", "113817.224000", "113817.227000", "113817.230000", "113817.233000", "113817.235000", "113817.238000", "113817.241000", "113817.244000", "113817.247000", "113817.249000", "113817.252000", "113817.255000", "113857.200000", "113857.203000", "113857.206000", "113857.208000", "113857.211000", "113857.214000", "113857.217000", "113857.220000", "113857.222000", "113857.225000", "113857.228000", "113857.231000", "113857.234000", "113857.237000", "113857.239000", "113857.242000", "113857.245000", "113857.248000", "113857.251000", "113857.254000", "113857.256000", "113857.259000", "113857.262000", "113857.265000", "113857.267000", "113857.280000", "113857.282000", "113937.200000", "113937.203000", "113937.206000", "113937.208000", "113937.211000", "113937.214000", "113937.217000", "113937.220000", "113937.222000", "113937.225000", "113937.228000", "113937.231000", "113937.234000", "113937.236000", "113937.239000", "113937.242000", "113937.245000", "113937.248000", "113937.250000", "113937.253000", "113937.256000", "113937.259000", "113937.262000", "113937.265000", "113937.267000", "113937.270000", "113937.273000", "114017.199000", "114017.202000", "114017.205000", "114017.207000", "114017.210000", "114017.213000", "114017.216000", "114017.219000", "114017.221000", "114017.224000", "114017.227000", "114017.230000", "114017.233000", "114017.236000", "114017.238000", "114017.241000", "114017.244000", "114017.247000", "114017.250000", "114017.252000", "114017.255000", "114017.258000", "114017.261000", "114017.264000", "114017.267000", "114017.269000", "114017.272000", "114057.200000", "114057.290000", "114057.293000", "114057.296000", "114057.299000", "114057.302000", "114057.304000", "114057.307000", "114057.310000", "114057.313000", "114057.316000", "114057.319000", "114057.321000", "114057.324000", "114057.327000", "114057.330000", "114057.333000", "114057.336000", "114057.338000", "114057.341000", "114057.344000", "114057.347000", "114057.350000", "114057.353000", "114057.355000", "114057.358000", "114057.361000", "114137.200000", "114137.203000", "114137.206000", "114137.209000", "114137.212000", "114137.215000", "114137.217000", "114137.220000", "114137.223000", "114137.226000", "114137.229000", "114137.232000", "114137.234000", "114137.237000", "114137.240000", "114137.243000", "114137.246000", "114137.249000", "114137.251000", "114137.254000", "114137.257000", "114137.260000", "114137.263000", "114137.266000", "114137.269000", "114137.271000", "114137.274000", "114157.200000", "114157.203000", "114157.206000", "114157.209000", "114157.212000", "114157.214000", "114157.217000", "114157.220000", "114157.223000", "114157.226000", "114157.228000", "114157.231000", "114157.234000", "114237.199000", "114237.297000", "114237.300000", "114237.303000", "114237.306000", "114237.308000", "114237.311000", "114237.314000", "114237.317000", "114237.320000", "114237.323000", "114237.338000", "114237.340000", "114237.343000", "114237.346000", "114237.349000", "114237.352000", "114237.355000", "114237.358000", "114237.361000", "114237.363000", "114237.366000", "114237.369000", "114237.372000", "114237.375000", "114237.378000", "114237.381000", "114317.200000", "114317.203000", "114317.206000", "114317.209000", "114317.211000", "114317.214000", "114317.217000", "114317.220000", "114317.223000", "114317.226000", "114317.228000", "114317.231000", "114317.234000", "114317.237000", "114317.240000", "114317.243000", "114317.245000", "114317.248000", "114317.251000", "114317.254000", "114317.257000", "114317.260000", "114317.262000", "114317.265000", "114317.268000", "114317.271000", "114317.274000", "114357.200000", "114357.203000", "114357.207000", "114357.210000", "114357.213000", "114357.216000", "114357.219000", "114357.237000", "114357.240000", "114357.243000", "114357.245000", "114357.248000", "114357.251000", "114357.254000", "114357.257000", "114357.260000", "114357.262000", "114357.265000", "114357.268000", "114357.271000", "114357.274000", "114357.276000", "114357.279000", "114357.282000", "114357.285000", "114357.288000", "114437.199000", "114437.202000", "114437.205000", "114437.207000", "114437.210000", "114437.213000", "114437.216000", "114437.219000", "114437.222000", "114437.225000", "114437.228000", "114437.231000", "114437.233000", "114437.236000", "114437.239000", "114437.242000", "114437.245000", "114437.247000", "114437.250000", "114437.253000", "114437.256000", "114437.259000", "114437.262000", "114437.265000", "114437.267000", "114437.270000", "114437.273000", "114517.199000", "114517.202000", "114517.205000", "114517.208000", "114517.210000", "114517.213000", "114517.216000", "114517.219000", "114517.222000", "114517.225000", "114517.228000", "114517.230000", "114517.233000", "114517.236000", "114517.239000", "114517.242000", "114517.244000", "114517.247000", "114517.250000", "114517.253000", "114517.256000", "114517.259000", "114517.261000", "114517.264000", "114517.267000", "114517.270000", "114517.273000", "114557.200000", "114557.203000", "114557.206000", "114557.209000", "114557.211000", "114557.214000", "114557.217000", "114557.220000", "114557.223000", "114557.225000", "114557.228000", "114557.231000", "114557.234000", "114557.237000", "114557.240000", "114557.242000", "114557.245000", "114557.248000", "114557.251000", "114557.254000", "114557.256000", "114557.259000", "114557.262000", "114557.265000", "114557.275000", "114557.278000", "114557.281000", "114637.199000", "114637.202000", "114637.205000", "114637.208000", "114637.211000", "114637.213000", "114637.216000", "114637.219000", "114637.222000", "114637.225000", "114637.227000", "114637.230000", "114637.233000", "114637.236000", "114637.239000", "114637.242000", "114637.244000", "114637.247000", "114637.250000", "114637.253000", "114637.256000", "114637.259000", "114637.262000", "114637.265000", "114637.267000", "114637.270000", "114637.273000", "114717.199000", "114717.202000", "114717.205000", "114717.208000", "114717.211000", "114717.214000", "114717.221000", "114717.224000", "114717.226000", "114717.229000", "114717.232000", "114717.235000", "114717.238000", "114717.241000", "114717.244000", "114717.247000", "114717.250000", "114717.253000", "114717.255000", "114717.258000", "114717.261000", "114717.264000", "114717.267000", "114717.270000", "114717.273000", "114717.275000", "114717.278000", "114757.200000", "114757.203000", "114757.206000", "114757.209000", "114757.212000", "114757.215000", "114757.218000", "114757.220000", "114757.223000", "114757.226000", "114757.229000", "114757.232000", "114757.234000", "114757.237000", "114757.240000", "114757.243000", "114757.246000", "114757.249000", "114757.251000", "114757.254000", "114757.257000", "114757.260000", "114757.263000", "114757.266000", "114757.269000", "114757.272000", "114757.275000", "114819.251000", "114819.254000", "114819.258000", "114819.260000", "114819.263000", "114819.266000", "114819.269000", "114819.272000", "114819.275000", "114819.278000", "114819.281000", "114819.284000", "114819.287000", "114819.289000"],
