{
  "AcquisitionMatrixPE": 104,
  "AcquisitionNumber": 1,
  "AcquisitionTime": "11:49:31.750000",
  "BandwidthPerPixelPhaseEncode": 17.17,
  "BaseResolution": 104,
  "BodyPartExamined": "BRAIN",
  "CoilString": "HC1-7;NC1_2",
  "ConsistencyInfo": "N4_VE11C_LATEST_20160120",
  "ConversionSoftware": "dcm2niix",
  "ConversionSoftwareVersion": "v1.0.20190902",
  "DerivedVendorReportedEchoSpacing": 0.000560011,
  "DeviceSerialNumber": "167006",
  "DwellTime": 2.1e-06,
  "EchoTime": 0.037,
  "EchoTrainLength": 104,
  "EffectiveEchoSpacing": 0.000560011,
  "FlipAngle": 52,
  "ImageComments": "Unaliased_MB4_PE3_LB",
  "ImageOrientationPatientDICOM": [0.995852, 0.073271, 0.0539457, -0.0563742, 0.962247, -0.266276],
  "ImageType": [
    "ORIGINAL",
    "PRIMARY",
    "M",
    "MB",
    "ND",
    "MOSAIC"
],
  "ImagingFrequency": 123.259,
  "InPlanePhaseEncodingDirectionDICOM": "COL",
  "InstitutionAddress": "Chemin_Queen-Mary_4565_Montreal_District_CA_H3W_1W5",
  "InstitutionName": "IUGM",
  "InstitutionalDepartmentName": "Department",
  "MRAcquisitionType": "2D",
  "MagneticFieldStrength": 3,
  "Manufacturer": "Siemens",
  "ManufacturersModelName": "Prisma_fit",
  "Modality": "MR",
  "MultibandAccelerationFactor": 4,
  "PartialFourier": 1,
  "PatientPosition": "HFS",
  "PercentPhaseFOV": 100,
  "PhaseEncodingDirection": "j",
  "PhaseEncodingSteps": 104,
  "PhaseResolution": 1,
  "PixelBandwidth": 2290,
  "ProcedureStepDescription": "games_shinobi",
  "ProtocolName": "func_task-shinobi_run-4",
  "PulseSequenceDetails": "%CustomerSeq%_cmrr_mbep2d_bold",
  "ReceiveCoilActiveElements": "HC1-7;NC1,2",
  "ReceiveCoilName": "HeadNeck_64",
  "ReconMatrixPE": 104,
  "RepetitionTime": 1.49,
  "SAR": 0.0396941,
  "ScanOptions": "FS",
  "ScanningSequence": "EP",
  "SequenceName": "epfid2d1_104",
  "SequenceVariant": "SK_SS",
  "SeriesDescription": "func_task-shinobi_run-4",
  "SeriesNumber": 19,
  "ShimSetting": [632, -7217, -8828, 657, 69, -30, 102, -9],
  "SliceThickness": 2,
  "SliceTiming": [0, 0.785, 0.0975, 0.8825, 0.195, 0.98, 0.295, 1.0775, 0.3925, 1.175, 0.49, 1.2725, 0.5875, 1.3725, 0.685, 0, 0.785, 0.0975, 0.8825, 0.195, 0.98, 0.295, 1.0775, 0.3925, 1.175, 0.49, 1.2725, 0.5875, 1.3725, 0.685, 0, 0.785, 0.0975, 0.8825, 0.195, 0.98, 0.295, 1.0775, 0.3925, 1.175, 0.49, 1.2725, 0.5875, 1.3725, 0.685, 0, 0.785, 0.0975, 0.8825, 0.195, 0.98, 0.295, 1.0775, 0.3925, 1.175, 0.49, 1.2725, 0.5875, 1.3725, 0.685],
  "SoftwareVersions": "syngo_MR_E11",
  "SpacingBetweenSlices": 2,
  "StationName": "MRC35049",
  "TaskName": "shinobi",
  "TotalReadoutTime": 0.0576811,
  "TxRefAmp": 247.376,
  "WipMemBlock": "779c2e61-422c-4a4b-8264-7c586d45adcd||Sequence: R016 ve11c/master r/e634e98; Dec 19 2017 11:00:25 by eja",
  "dcmmeta_affine": [
    [-1.991703987121582, -0.11274837702512741, 0.1428387463092804, 108.36366271972656],
    [-0.14654195308685303, 1.9244939088821411, -0.5242599844932556, -58.23284149169922],
    [0.10789141058921814, 0.5325512886047363, 1.9247723817825317, -55.97157287597656],
    [0.0, 0.0, 0.0, 1.0]
],
  "dcmmeta_reorient_transform": [
    [0.0, -1.0, 0.0, 103.0],
    [1.0, 0.0, 0.0, 0.0],
    [0.0, 0.0, 1.0, 0.0],
    [0.0, 0.0, 0.0, 1.0]
],
  "dcmmeta_shape": [104, 104, 60, 449],
  "dcmmeta_slice_dim": 2,
  "dcmmeta_version": 0.6,
  "global": {
    "const": {
      "AcquisitionMatrix": [104, 0, 0, 104],
      "AngioFlag": "N",
      "BitsAllocated": 16,
      "BitsStored": 16,
      "BodyPartExamined": "BRAIN",
      "Columns": 832,
      "EchoNumbers": 1,
      "EchoTime": 37.0,
      "EchoTrainLength": 104,
      "FlipAngle": 52.0,
      "HighBit": 15,
      "ImageOrientationPatient": [0.99585200931077, 0.07327097863069, 0.05394570642967, -0.0563741880897, 0.96224696676968, -0.2662756576553],
      "ImagePositionPatient": [-780.6904353947, -893.84709603942, 153.45741811664],
      "ImageType": [
        "ORIGINAL",
        "PRIMARY",
        "M",
        "MB",
        "ND",
        "MOSAIC"
],
      "ImagedNucleus": "1H",
      "ImagingFrequency": 123.259029,
      "InPlanePhaseEncodingDirection": "COL",
      "MRAcquisitionType": "2D",
      "MagneticFieldStrength": 3.0,
      "Manufacturer": "SIEMENS",
      "ManufacturerModelName": "Prisma_fit",
      "Modality": "MR",
      "NumberOfAverages": 1.0,
      "NumberOfPhaseEncodingSteps": 104,
      "PercentPhaseFieldOfView": 100.0,
      "PercentSampling": 100.0,
      "PerformedProcedureStepStartTime": "105608.942000",
      "PhotometricInterpretation": "MONOCHROME2",
      "PixelBandwidth": 2290.0,
      "PixelRepresentation": 0,
      "PixelSpacing": [2.0, 2.0],
      "ProtocolName": "func_task-shinobi_run-4",
      "RepetitionTime": 1490.0,
      "Rows": 832,
      "SAR": 0.03969410519573,
      "SamplesPerPixel": 1,
      "ScanOptions": "FS",
      "ScanningSequence": "EP",
      "SequenceName": "epfid2d1_104",
      "SequenceVariant": [
        "SK",
        "SS"
],
      "SeriesDescription": "func_task-shinobi_run-4",
      "SeriesNumber": 19,
      "SeriesTime": "115102.051000",
      "SliceLocation": -30.862426407115,
      "SliceThickness": 2.0,
      "SmallestImagePixelValue": 0,
      "SoftwareVersions": "syngo MR E11",
      "SpacingBetweenSlices": 1.9999999908039,
      "SpecificCharacterSet": "ISO_IR 100",
      "StudyID": "1",
      "StudyTime": "105608.855000",
      "TransmitCoilName": "Body",
      "VariableFlipAngleFlag": "N",
      "WindowCenterWidthExplanation": "Algo1",
      "dBdt": 0.0},
    "slices": {}
  },
  "time": {
    "samples": {
      "AcquisitionNumber": [1, 2, 3, 4, 5, 6, 7, 8, 9, 10, 11, 12, 13, 14, 15, 16, 17, 18, 19, 20, 21, 22, 23, 24, 25, 26, 27, 28, 29, 30, 31, 32, 33, 34, 35, 36, 37, 38, 39, 40, 41, 42, 43, 44, 45, 46, 47, 48, 49, 50, 51, 52, 53, 54, 55, 56, 57, 58, 59, 60, 61, 62, 63, 64, 65, 66, 67, 68, 69, 70, 71, 72, 73, 74, 75, 76, 77, 78, 79, 80, 81, 82, 83, 84, 85, 86, 87, 88, 89, 90, 91, 92, 93, 94, 95, 96, 97, 98, 99, 100, 101, 102, 103, 104, 105, 106, 107, 108, 109, 110, 111, 112, 113, 114, 115, 116, 117, 118, 119, 120, 121, 122, 123, 124, 125, 126, 127, 128, 129, 130, 131, 132, 133, 134, 135, 136, 137, 138, 139, 140, 141, 142, 143, 144, 145, 146, 147, 148, 149, 150, 151, 152, 153, 154, 155, 156, 157, 158, 159, 160, 161, 162, 163, 164, 165, 166, 167, 168, 169, 170, 171, 172, 173, 174, 175, 176, 177, 178, 179, 180, 181, 182, 183, 184, 185, 186, 187, 188, 189, 190, 191, 192, 193, 194, 195, 196, 197, 198, 199, 200, 201, 202, 203, 204, 205, 206, 207, 208, 209, 210, 211, 212, 213, 214, 215, 216, 217, 218, 219, 220, 221, 222, 223, 224, 225, 226, 227, 228, 229, 230, 231, 232, 233, 234, 235, 236, 237, 238, 239, 240, 241, 242, 243, 244, 245, 246, 247, 248, 249, 250, 251, 252, 253, 254, 255, 256, 257, 258, 259, 260, 261, 262, 263, 264, 265, 266, 267, 268, 269, 270, 271, 272, 273, 274, 275, 276, 277, 278, 279, 280, 281, 282, 283, 284, 285, 286, 287, 288, 289, 290, 291, 292, 293, 294, 295, 296, 297, 298, 299, 300, 301, 302, 303, 304, 305, 306, 307, 308, 309, 310, 311, 312, 313, 314, 315, 316, 317, 318, 319, 320, 321, 322, 323, 324, 325, 326, 327, 328, 329, 330, 331, 332, 333, 334, 335, 336, 337, 338, 339, 340, 341, 342, 343, 344, 345, 346, 347, 348, 349, 350, 351, 352, 353, 354, 355, 356, 357, 358, 359, 360, 361, 362, 363, 364, 365, 366, 367, 368, 369, 370, 371, 372, 373, 374, 375, 376, 377, 378, 379, 380, 381, 382, 383, 384, 385, 386, 387, 388, 389, 390, 391, 392, 393, 394, 395, 396, 397, 398, 399, 400, 401, 402, 403, 404, 405, 406, 407, 408, 409, 410, 411, 412, 413, 414, 415, 416, 417, 418, 419, 420, 421, 422, 423, 424, 425, 426, 427, 428, 429, 430, 431, 432, 433, 434, 435, 436, 437, 438, 439, 440, 441, 442, 443, 444, 445, 446, 447, 448, 449],
      "AcquisitionTime": ["114931.750000", "114933.240000", "114934.730000", "114936.220000", "114937.710000", "114939.200000", "114940.690000", "114942.180000", "114943.670000", "114945.160000", "114946.650000", "114948.140000", "114949.630000", "114951.120000", "114952.610000", "114954.100000", "114955.590000", "114957.080000", "114958.570000", "115000.060000", "115001.550000", "115003.040000", "115004.530000", "115006.020000", "115007.510000", "115009.000000", "115010.490000", "115011.980000", "115013.470000", "115014.960000", "115016.450000", "115017.940000", "115019.430000", "115020.920000", "115022.410000", "115023.900000", "115025.390000", "115026.880000", "115028.370000", "115029.860000", "115031.350000", "115032.840000", "115034.330000", "115035.820000", "115037.310000", "115038.800000", "115040.290000", "115041.780000", "115043.270000", "115044.760000", "115046.250000", "115047.740000", "115049.230000", "115050.720000", "115052.210000", "115053.700000", "115055.190000", "115056.680000", "115058.170000", "115059.660000", "115101.150000", "115102.640000", "115104.130000", "115105.620000", "115107.110000", "115108.600000", "115110.090000", "115111.580000", "115113.070000", "115114.560000", "115116.050000", "115117.540000", "115119.030000", "115120.520000", "115122.010000", "115123.500000", "115124.990000", "115126.480000", "115127.970000", "115129.460000", "115130.950000", "115132.440000", "115133.930000", "115135.420000", "115136.910000", "115138.400000", "115139.890000", "115141.380000", "115142.870000", "115144.360000", "115145.850000", "115147.340000", "115148.830000", "115150.320000", "115151.810000", "115153.300000", "115154.790000", "115156.280000", "115157.770000", "115159.260000", "115200.750000", "115202.240000", "115203.730000", "115205.220000", "115206.710000", "115208.200000", "115209.690000", "115211.180000", "115212.670000", "115214.160000", "115215.650000", "115217.140000", "115218.630000", "115220.120000", "115221.610000", "115223.100000", "115224.590000", "115226.080000", "115227.570000", "115229.060000", "115230.550000", "115232.040000", "115233.530000", "115235.020000", "115236.510000", "115238.000000", "115239.490000", "115240.980000", "115242.470000", "115243.960000", "115245.450000", "115246.940000", "115248.430000", "115249.920000", "115251.410000", "115252.900000", "115254.390000", "115255.880000", "115257.370000", "115258.860000", "115300.350000", "115301.840000", "115303.330000", "115304.820000", "115306.310000", "115307.800000", "115309.290000", "115310.780000", "115312.270000", "115313.760000", "115315.250000", "115316.740000", "115318.230000", "115319.720000", "115321.210000", "115322.700000", "115324.190000", "115325.680000", "115327.170000", "115328.660000", "115330.150000", "115331.640000", "115333.130000", "115334.620000", "115336.110000", "115337.600000", "115339.090000", "115340.580000", "115342.070000", "115343.560000", "115345.050000", "115346.540000", "115348.030000", "115349.520000", "115351.010000", "115352.500000", "115353.990000", "115355.480000", "115356.970000", "115358.460000", "115359.950000", "115401.440000", "115402.930000", "115404.420000", "115405.910000", "115407.400000", "115408.890000", "115410.380000", "115411.870000", "115413.360000", "115414.850000", "115416.340000", "115417.830000", "115419.320000", "115420.810000", "115422.300000", "115423.790000", "115425.280000", "115426.770000", "115428.260000", "115429.750000", "115431.240000", "115432.730000", "115434.220000", "115435.710000", "115437.200000", "115438.690000", "115440.180000", "115441.670000", "115443.160000", "115444.650000", "115446.140000", "115447.630000", "115449.120000", "115450.610000", "115452.100000", "115453.590000", "115455.080000", "115456.570000", "115458.060000", "115459.550000", "115501.040000", "115502.530000", "115504.020000", "115505.510000", "115507.000000", "115508.490000", "115509.980000", "115511.470000", "115512.960000", "115514.450000", "115515.940000", "115517.430000", "115518.920000", "115520.410000", "115521.900000", "115523.390000", "115524.880000", "115526.370000", "115527.860000", "115529.350000", "115530.840000", "115532.330000", "115533.820000", "115535.310000", "115536.800000", "115538.290000", "115539.780000", "115541.270000", "115542.760000", "115544.250000", "115545.740000", "115547.230000", "115548.720000", "115550.210000", "115551.700000", "115553.190000", "115554.680000", "115556.170000", "115557.660000", "115559.150000", "115600.640000", "115602.130000", "115603.620000", "115605.110000", "115606.600000", "115608.090000", "115609.580000", "115611.070000", "115612.560000", "115614.050000", "115615.540000", "115617.030000", "115618.520000", "115620.010000", "115621.500000", "115622.990000", "115624.480000", "115625.970000", "115627.460000", "115628.950000", "115630.440000", "115631.930000", "115633.420000", "115634.910000", "115636.400000", "115637.890000", "115639.380000", "115640.870000", "115642.360000", "115643.850000", "115645.340000", "115646.830000", "115648.320000", "115649.810000", "115651.300000", "115652.790000", "115654.280000", "115655.770000", "115657.260000", "115658.750000", "115700.240000", "115701.730000", "115703.220000", "115704.710000", "115706.200000", "115707.690000", "115709.180000", "115710.670000", "115712.160000", "115713.650000", "115715.140000", "115716.630000", "115718.120000", "115719.610000", "115721.100000", "115722.590000", "115724.080000", "115725.570000", "115727.060000", "115728.550000", "115730.040000", "115731.530000", "115733.020000", "115734.510000", "115736.000000", "115737.490000", "115738.980000", "115740.470000", "115741.960000", "115743.450000", "115744.940000", "115746.430000", "115747.920000", "115749.410000", "115750.900000", "115752.390000", "115753.880000", "115755.370000", "115756.860000", "115758.350000", "115759.840000", "115801.330000", "115802.820000", "115804.310000", "115805.800000", "115807.290000", "115808.780000", "115810.270000", "115811.760000", "115813.250000", "115814.740000", "115816.230000", "115817.720000", "115819.210000", "115820.700000", "115822.190000", "115823.680000", "115825.170000", "115826.660000", "115828.150000", "115829.640000", "115831.130000", "115832.620000", "115834.110000", "115835.600000", "115837.090000", "115838.580000", "115840.070000", "115841.560000", "115843.050000", "115844.540000", "115846.030000", "115847.520000", "115849.010000", "115850.500000", "115851.990000", "115853.480000", "115854.970000", "115856.460000", "115857.950000", "115859.440000", "115900.930000", "115902.420000", "115903.910000", "115905.400000", "115906.890000", "115908.380000", "115909.870000", "115911.360000", "115912.850000", "115914.340000", "115915.830000", "115917.320000", "115918.810000", "115920.300000", "115921.790000", "115923.280000", "115924.770000", "115926.260000", "115927.750000", "115929.240000", "115930.730000", "115932.220000", "115933.710000", "115935.200000", "115936.690000", "115938.180000", "115939.670000", "115941.160000", "115942.650000", "115944.140000", "115945.630000", "115947.120000", "115948.610000", "115950.100000", "115951.590000", "115953.080000", "115954.570000", "115956.060000", "115957.550000", "115959.040000", "120000.530000", "120002.020000", "120003.510000", "120005.000000", "120006.490000", "120007.980000", "120009.470000", "120010.960000", "120012.450000", "120013.940000", "120015.430000", "120016.920000", "120018.410000", "120019.900000", "120021.390000", "120022.880000", "120024.370000", "120025.860000", "120027.350000", "120028.840000", "120030.330000", "120031.820000", "120033.310000", "120034.800000", "120036.290000", "120037.780000", "120039.270000"],
      "ContentTime": ["115102.053000", "115102.069000", "115102.072000", "115102.075000", "115102.077000", "115102.080000", "115102.083000", "115102.086000", "115102.089000", "115102.092000", "115102.094000", "115102.097000", "115102.100000", "115102.103000", "115102.106000", "115102.109000", "115102.111000", "115102.114000", "115102.117000", "115102.120000", "115102.123000", "115102.125000", "115102.128000", "115102.131000", "115102.134000", "115102.137000", "115102.140000", "115102.142000", "115102.145000", "115102.148000", "115102.151000", "115102.154000", "115102.157000", "115102.160000", "115102.163000", "115102.168000", "115102.171000", "115122.026000", "115122.029000", "115122.032000", "115122.035000", "115122.037000", "115122.040000", "115122.043000", "115122.046000", "115122.048000", "115122.051000", "115122.054000", "115122.057000", "115122.060000", "115122.062000", "115122.065000", "115122.068000", "115122.071000", "115122.074000", "115122.077000", "115122.079000", "115142.026000", "115142.029000", "115142.032000", "115142.034000", "115142.037000", "115142.040000", "115142.043000", "115142.046000", "115142.049000", "115142.052000", "115142.054000", "115142.057000", "115142.060000", "115142.063000", "115142.066000", "115142.069000", "115142.071000", "115142.074000", "115142.077000", "115142.080000", "115202.027000", "115202.030000", "115202.033000", "115202.036000", "115202.039000", "115202.042000", "115202.044000", "115202.047000", "115202.050000", "115202.053000", "115202.056000", "115202.058000", "115202.061000", "115202.064000", "115202.067000", "115202.070000", "115202.073000", "115202.076000", "115202.078000", "115202.081000", "115242.026000", "115242.029000", "115242.032000", "115242.034000", "115242.037000", "115242.040000", "115242.043000", "115242.046000", "115242.048000", "115242.051000", "115242.054000", "115242.057000", "115242.060000", "115242.063000", "115242.066000", "115242.068000", "115242.071000", "115242.074000", "115242.077000", "115242.080000", "115242.083000", "115242.086000", "115242.089000", "115242.092000", "115242.095000", "115242.097000", "115242.100000", "115242.103000", "115242.106000", "115242.109000", "115322.026000", "115322.029000", "115322.032000", "115322.034000", "115322.037000", "115322.040000", "115322.043000", "115322.046000", "115322.048000", "115322.051000", "115322.054000", "115322.057000", "115322.060000", "115322.062000", "115322.065000", "115322.068000", "115322.071000", "115322.074000", "115322.077000", "115322.079000", "115322.082000", "115322.085000", "115322.088000", "115322.091000", "115322.094000", "115322.096000", "115322.099000", "115402.026000", "115402.029000", "115402.032000", "115402.035000", "115402.037000", "115402.040000", "115402.043000", "115402.046000", "115402.049000", "115402.052000", "115402.054000", "115402.057000", "115402.060000", "115402.063000", "115402.066000", "115402.081000", "115402.084000", "115402.087000", "115402.090000", "115402.092000", "115402.095000", "115402.098000", "115402.101000", "115402.104000", "115402.107000", "115402.109000", "115402.112000", "115442.026000", "115442.029000", "115442.032000", "115442.034000", "115442.037000", "115442.040000", "115442.043000", "115442.046000", "115442.049000", "115442.052000", "115442.055000", "115442.058000", "115442.061000", "115442.064000", "115442.067000", "115442.070000", "115442.072000", "115442.075000", "115442.078000", "115442.081000", "115442.084000", "115442.086000", "115442.089000", "115442.092000", "115442.095000", "115442.098000", "115522.026000", "115522.029000", "115522.032000", "115522.034000", "115522.037000", "115522.040000", "115522.043000", "115522.046000", "115522.048000", "115522.051000", "115522.054000", "115522.057000", "115522.060000", "115522.063000", "115522.065000", "115522.068000", "115522.071000", "115522.074000", "115522.077000", "115522.079000", "115522.082000", "115522.085000", "115522.088000", "115522.091000", "115522.094000", "115522.097000", "115522.099000", "115602.026000", "115602.029000", "115602.032000", "115602.034000", "115602.037000", "115602.040000", "115602.043000", "115602.046000", "115602.049000", "115602.052000", "115602.055000", "115602.057000", "115602.060000", "115602.063000", "115602.066000", "115602.069000", "115602.072000", "115602.075000", "115602.078000", "115602.081000", "115602.083000", "115602.086000", "115602.089000", "115602.092000", "115602.095000", "115602.098000", "115602.101000", "115642.026000", "115642.029000", "115642.032000", "115642.034000", "115642.037000", "115642.040000", "115642.043000", "115642.046000", "115642.048000", "115642.051000", "115642.054000", "115642.057000", "115642.060000", "115642.063000", "115642.065000", "115642.068000", "115642.071000", "115642.074000", "115642.076000", "115642.079000", "115642.082000", "115642.085000", "115642.088000", "115642.091000", "115642.094000", "115642.096000", "115642.099000", "115722.026000", "115722.029000", "115722.032000", "115722.035000", "115722.038000", "115722.040000", "115722.043000", "115722.046000", "115722.049000", "115722.052000", "115722.054000", "115722.057000", "115722.060000", "115722.063000", "115722.066000", "115722.069000", "115722.071000", "115722.074000", "115722.077000", "115722.080000", "115722.083000", "115722.085000", "115722.088000", "115722.091000", "115722.094000", "115722.097000", "115722.100000", "115802.026000", "115802.029000", "115802.032000", "115802.035000", "115802.037000", "115802.040000", "115802.043000", "115802.046000", "115802.049000", "115802.051000", "115802.054000", "115802.057000", "115802.060000", "115802.063000", "115802.066000", "115802.069000", "115802.071000", "115802.074000", "115802.077000", "115802.080000", "115802.083000", "115802.085000", "115802.088000", "115802.091000", "115802.094000", "115802.097000", "115802.100000", "115842.026000", "115842.029000", "115842.032000", "115842.035000", "115842.037000", "115842.040000", "115842.043000", "115842.046000", "115842.049000", "115842.052000", "115842.063000", "115842.066000", "115842.070000", "115842.073000", "115842.076000", "115842.079000", "115842.082000", "115842.084000", "115842.087000", "115842.090000", "115842.093000", "115842.096000", "115842.099000", "115842.102000", "115842.104000", "115842.107000", "115922.026000", "115922.029000", "115922.032000", "115922.035000", "115922.037000", "115922.040000", "115922.043000", "115922.046000", "115922.049000", "115922.051000", "115922.054000", "115922.057000", "115922.060000", "115922.063000", "115922.066000", "115922.068000", "115922.071000", "115922.074000", "115922.077000", "115922.080000", "115922.082000", "115922.085000", "115922.088000", "115922.091000", "115922.094000", "115922.097000", "115922.099000", "120002.026000", "120002.029000", "120002.032000", "120002.035000", "120002.037000", "120002.040000", "120002.043000", "120002.046000", "120002.049000", "120002.052000", "120002.055000", "120002.057000", "120002.060000", "120002.070000", "120002.073000", "120002.076000", "120002.078000", "120002.081000", "120002.084000", "120002.087000", "120002.090000", "120002.093000", "120002.095000", "120002.098000", "120002.101000", "120002.104000", "120002.107000", "120041.593000", "120041.596000", "120041.599000", "120041.602000", "120041.605000", "120041.607000", "120041.610000", "120041.613000", "120041.616000", "120041.619000", "120041.622000", "120041.625000", "120041.628000", "120041.630000", "120041.633000", "120041.636000", "120041.639000", "120041.642000", "120041.645000", "120041.648000", "120041.651000", "120041.654000", "120041.657000", "120041.660000", "120041.663000", "120041.665000", "120041.668000"],
