{
  "AcquisitionMatrixPE": 104,
  "AcquisitionNumber": 1,
  "AcquisitionTime": "11:10:38.025000",
  "BandwidthPerPixelPhaseEncode": 17.17,
  "BaseResolution": 104,
  "BodyPartExamined": "BRAIN",
  "CoilString": "HC1-7;NC1_2",
  "ConsistencyInfo": "N4_VE11C_LATEST_20160120",
  "ConversionSoftware": "dcm2niix",
  "ConversionSoftwareVersion": "v1.0.20190902",
  "DerivedVendorReportedEchoSpacing": 0.000560011,
  "DeviceSerialNumber": "167006",
  "DwellTime": 2.1e-06,
  "EchoTime": 0.037,
  "EchoTrainLength": 104,
  "EffectiveEchoSpacing": 0.000560011,
  "FlipAngle": 52,
  "ImageComments": "Unaliased_MB4_PE3_LB",
  "ImageOrientationPatientDICOM": [0.995852, 0.073271, 0.0539457, -0.0563742, 0.962247, -0.266276],
  "ImageType": [
    "ORIGINAL",
    "PRIMARY",
    "M",
    "MB",
    "ND",
    "MOSAIC"
],
  "ImagingFrequency": 123.259,
  "InPlanePhaseEncodingDirectionDICOM": "COL",
  "InstitutionAddress": "Chemin_Queen-Mary_4565_Montreal_District_CA_H3W_1W5",
  "InstitutionName": "IUGM",
  "InstitutionalDepartmentName": "Department",
  "MRAcquisitionType": "2D",
  "MagneticFieldStrength": 3,
  "Manufacturer": "Siemens",
  "ManufacturersModelName": "Prisma_fit",
  "Modality": "MR",
  "MultibandAccelerationFactor": 4,
  "PartialFourier": 1,
  "PatientPosition": "HFS",
  "PercentPhaseFOV": 100,
  "PhaseEncodingDirection": "j",
  "PhaseEncodingSteps": 104,
  "PhaseResolution": 1,
  "PixelBandwidth": 2290,
  "ProcedureStepDescription": "games_shinobi",
  "ProtocolName": "func_task-shinobi_run-1",
  "PulseSequenceDetails": "%CustomerSeq%_cmrr_mbep2d_bold",
  "ReceiveCoilActiveElements": "HC1-7;NC1,2",
  "ReceiveCoilName": "HeadNeck_64",
  "ReconMatrixPE": 104,
  "RepetitionTime": 1.49,
  "SAR": 0.0396941,
  "ScanOptions": "FS",
  "ScanningSequence": "EP",
  "SequenceName": "epfid2d1_104",
  "SequenceVariant": "SK_SS",
  "SeriesDescription": "func_task-shinobi_run-1",
  "SeriesNumber": 13,
  "ShimSetting": [632, -7217, -8828, 657, 69, -30, 102, -9],
  "SliceThickness": 2,
  "SliceTiming": [0, 0.785, 0.0975, 0.8825, 0.1975, 0.98, 0.295, 1.0775, 0.3925, 1.1775, 0.49, 1.275, 0.5875, 1.3725, 0.6875, 0, 0.785, 0.0975, 0.8825, 0.1975, 0.98, 0.295, 1.0775, 0.3925, 1.1775, 0.49, 1.275, 0.5875, 1.3725, 0.6875, 0, 0.785, 0.0975, 0.8825, 0.1975, 0.98, 0.295, 1.0775, 0.3925, 1.1775, 0.49, 1.275, 0.5875, 1.3725, 0.6875, 0, 0.785, 0.0975, 0.8825, 0.1975, 0.98, 0.295, 1.0775, 0.3925, 1.1775, 0.49, 1.275, 0.5875, 1.3725, 0.6875],
  "SoftwareVersions": "syngo_MR_E11",
  "SpacingBetweenSlices": 2,
  "StationName": "MRC35049",
  "TaskName": "shinobi",
  "TotalReadoutTime": 0.0576811,
  "TxRefAmp": 247.376,
  "WipMemBlock": "32110721-d238-4ae4-84a1-269be5c14d26||Sequence: R016 ve11c/master r/e634e98; Dec 19 2017 11:00:25 by eja",
  "dcmmeta_affine": [
    [-1.991703987121582, -0.11274837702512741, 0.1428387463092804, 108.36366271972656],
    [-0.14654195308685303, 1.9244939088821411, -0.5242599844932556, -58.23284149169922],
    [0.10789141058921814, 0.5325512886047363, 1.9247723817825317, -55.97157287597656],
    [0.0, 0.0, 0.0, 1.0]
],
  "dcmmeta_reorient_transform": [
    [0.0, -1.0, 0.0, 103.0],
    [1.0, 0.0, 0.0, 0.0],
    [0.0, 0.0, 1.0, 0.0],
    [0.0, 0.0, 0.0, 1.0]
],
  "dcmmeta_shape": [104, 104, 60, 490],
  "dcmmeta_slice_dim": 2,
  "dcmmeta_version": 0.6,
  "global": {
    "const": {
      "AcquisitionMatrix": [104, 0, 0, 104],
      "AngioFlag": "N",
      "BitsAllocated": 16,
      "BitsStored": 16,
      "BodyPartExamined": "BRAIN",
      "Columns": 832,
      "EchoNumbers": 1,
      "EchoTime": 37.0,
      "EchoTrainLength": 104,
      "FlipAngle": 52.0,
      "HighBit": 15,
      "ImageOrientationPatient": [0.99585200931077, 0.07327097863069, 0.05394570642967, -0.0563741880897, 0.96224696676968, -0.2662756576553],
      "ImagePositionPatient": [-780.6904353947, -893.84709603942, 153.45741811664],
      "ImageType": [
        "ORIGINAL",
        "PRIMARY",
        "M",
        "MB",
        "ND",
        "MOSAIC"
],
      "ImagedNucleus": "1H",
      "ImagingFrequency": 123.259011,
      "InPlanePhaseEncodingDirection": "COL",
      "MRAcquisitionType": "2D",
      "MagneticFieldStrength": 3.0,
      "Manufacturer": "SIEMENS",
      "ManufacturerModelName": "Prisma_fit",
      "Modality": "MR",
      "NumberOfAverages": 1.0,
      "NumberOfPhaseEncodingSteps": 104,
      "PercentPhaseFieldOfView": 100.0,
      "PercentSampling": 100.0,
      "PerformedProcedureStepStartTime": "105608.942000",
      "PhotometricInterpretation": "MONOCHROME2",
      "PixelBandwidth": 2290.0,
      "PixelRepresentation": 0,
      "PixelSpacing": [2.0, 2.0],
      "ProtocolName": "func_task-shinobi_run-1",
      "RepetitionTime": 1490.0,
      "Rows": 832,
      "SAR": 0.03969410519573,
      "SamplesPerPixel": 1,
      "ScanOptions": "FS",
      "ScanningSequence": "EP",
      "SequenceName": "epfid2d1_104",
      "SequenceVariant": [
        "SK",
        "SS"
],
      "SeriesDescription": "func_task-shinobi_run-1",
      "SeriesNumber": 13,
      "SeriesTime": "111202.058000",
      "SliceLocation": -30.862426407115,
      "SliceThickness": 2.0,
      "SmallestImagePixelValue": 0,
      "SoftwareVersions": "syngo MR E11",
      "SpacingBetweenSlices": 1.9999999908039,
      "SpecificCharacterSet": "ISO_IR 100",
      "StudyID": "1",
      "StudyTime": "105608.855000",
      "TransmitCoilName": "Body",
      "VariableFlipAngleFlag": "N",
      "WindowCenterWidthExplanation": "Algo1",
      "dBdt": 0.0},
    "slices": {}
  },
  "time": {
    "samples": {
      "AcquisitionNumber": [1, 2, 3, 4, 5, 6, 7, 8, 9, 10, 11, 12, 13, 14, 15, 16, 17, 18, 19, 20, 21, 22, 23, 24, 25, 26, 27, 28, 29, 30, 31, 32, 33, 34, 35, 36, 37, 38, 39, 40, 41, 42, 43, 44, 45, 46, 47, 48, 49, 50, 51, 52, 53, 54, 55, 56, 57, 58, 59, 60, 61, 62, 63, 64, 65, 66, 67, 68, 69, 70, 71, 72, 73, 74, 75, 76, 77, 78, 79, 80, 81, 82, 83, 84, 85, 86, 87, 88, 89, 90, 91, 92, 93, 94, 95, 96, 97, 98, 99, 100, 101, 102, 103, 104, 105, 106, 107, 108, 109, 110, 111, 112, 113, 114, 115, 116, 117, 118, 119, 120, 121, 122, 123, 124, 125, 126, 127, 128, 129, 130, 131, 132, 133, 134, 135, 136, 137, 138, 139, 140, 141, 142, 143, 144, 145, 146, 147, 148, 149, 150, 151, 152, 153, 154, 155, 156, 157, 158, 159, 160, 161, 162, 163, 164, 165, 166, 167, 168, 169, 170, 171, 172, 173, 174, 175, 176, 177, 178, 179, 180, 181, 182, 183, 184, 185, 186, 187, 188, 189, 190, 191, 192, 193, 194, 195, 196, 197, 198, 199, 200, 201, 202, 203, 204, 205, 206, 207, 208, 209, 210, 211, 212, 213, 214, 215, 216, 217, 218, 219, 220, 221, 222, 223, 224, 225, 226, 227, 228, 229, 230, 231, 232, 233, 234, 235, 236, 237, 238, 239, 240, 241, 242, 243, 244, 245, 246, 247, 248, 249, 250, 251, 252, 253, 254, 255, 256, 257, 258, 259, 260, 261, 262, 263, 264, 265, 266, 267, 268, 269, 270, 271, 272, 273, 274, 275, 276, 277, 278, 279, 280, 281, 282, 283, 284, 285, 286, 287, 288, 289, 290, 291, 292, 293, 294, 295, 296, 297, 298, 299, 300, 301, 302, 303, 304, 305, 306, 307, 308, 309, 310, 311, 312, 313, 314, 315, 316, 317, 318, 319, 320, 321, 322, 323, 324, 325, 326, 327, 328, 329, 330, 331, 332, 333, 334, 335, 336, 337, 338, 339, 340, 341, 342, 343, 344, 345, 346, 347, 348, 349, 350, 351, 352, 353, 354, 355, 356, 357, 358, 359, 360, 361, 362, 363, 364, 365, 366, 367, 368, 369, 370, 371, 372, 373, 374, 375, 376, 377, 378, 379, 380, 381, 382, 383, 384, 385, 386, 387, 388, 389, 390, 391, 392, 393, 394, 395, 396, 397, 398, 399, 400, 401, 402, 403, 404, 405, 406, 407, 408, 409, 410, 411, 412, 413, 414, 415, 416, 417, 418, 419, 420, 421, 422, 423, 424, 425, 426, 427, 428, 429, 430, 431, 432, 433, 434, 435, 436, 437, 438, 439, 440, 441, 442, 443, 444, 445, 446, 447, 448, 449, 450, 451, 452, 453, 454, 455, 456, 457, 458, 459, 460, 461, 462, 463, 464, 465, 466, 467, 468, 469, 470, 471, 472, 473, 474, 475, 476, 477, 478, 479, 480, 481, 482, 483, 484, 485, 486, 487, 488, 489, 490],
      "AcquisitionTime": ["111038.025000", "111039.515000", "111041.005000", "111042.495000", "111043.985000", "111045.475000", "111046.965000", "111048.455000", "111049.945000", "111051.435000", "111052.925000", "111054.415000", "111055.905000", "111057.395000", "111058.885000", "111100.375000", "111101.865000", "111103.355000", "111104.845000", "111106.335000", "111107.825000", "111109.315000", "111110.805000", "111112.295000", "111113.785000", "111115.275000", "111116.765000", "111118.255000", "111119.745000", "111121.235000", "111122.725000", "111124.215000", "111125.705000", "111127.195000", "111128.685000", "111130.175000", "111131.665000", "111133.155000", "111134.645000", "111136.135000", "111137.625000", "111139.115000", "111140.605000", "111142.095000", "111143.585000", "111145.075000", "111146.565000", "111148.055000", "111149.545000", "111151.035000", "111152.525000", "111154.015000", "111155.505000", "111156.995000", "111158.485000", "111159.975000", "111201.465000", "111202.955000", "111204.445000", "111205.935000", "111207.425000", "111208.915000", "111210.405000", "111211.895000", "111213.385000", "111214.875000", "111216.365000", "111217.855000", "111219.345000", "111220.835000", "111222.325000", "111223.815000", "111225.305000", "111226.795000", "111228.285000", "111229.775000", "111231.265000", "111232.755000", "111234.245000", "111235.735000", "111237.225000", "111238.715000", "111240.205000", "111241.695000", "111243.185000", "111244.675000", "111246.165000", "111247.655000", "111249.145000", "111250.635000", "111252.125000", "111253.615000", "111255.105000", "111256.595000", "111258.085000", "111259.575000", "111301.065000", "111302.555000", "111304.045000", "111305.535000", "111307.025000", "111308.515000", "111310.005000", "111311.495000", "111312.985000", "111314.475000", "111315.965000", "111317.455000", "111318.945000", "111320.435000", "111321.925000", "111323.415000", "111324.905000", "111326.395000", "111327.885000", "111329.375000", "111330.865000", "111332.355000", "111333.845000", "111335.335000", "111336.825000", "111338.315000", "111339.805000", "111341.295000", "111342.785000", "111344.275000", "111345.765000", "111347.255000", "111348.745000", "111350.235000", "111351.725000", "111353.215000", "111354.705000", "111356.195000", "111357.685000", "111359.175000", "111400.665000", "111402.155000", "111403.645000", "111405.135000", "111406.625000", "111408.115000", "111409.605000", "111411.095000", "111412.585000", "111414.075000", "111415.565000", "111417.055000", "111418.545000", "111420.035000", "111421.525000", "111423.015000", "111424.505000", "111425.995000", "111427.485000", "111428.975000", "111430.465000", "111431.955000", "111433.445000", "111434.935000", "111436.425000", "111437.915000", "111439.405000", "111440.895000", "111442.385000", "111443.875000", "111445.365000", "111446.855000", "111448.345000", "111449.835000", "111451.325000", "111452.815000", "111454.305000", "111455.795000", "111457.285000", "111458.775000", "111500.265000", "111501.755000", "111503.245000", "111504.735000", "111506.225000", "111507.715000", "111509.205000", "111510.695000", "111512.185000", "111513.675000", "111515.165000", "111516.655000", "111518.145000", "111519.635000", "111521.125000", "111522.615000", "111524.105000", "111525.595000", "111527.085000", "111528.575000", "111530.065000", "111531.555000", "111533.045000", "111534.535000", "111536.025000", "111537.515000", "111539.005000", "111540.495000", "111541.985000", "111543.475000", "111544.965000", "111546.455000", "111547.945000", "111549.435000", "111550.925000", "111552.415000", "111553.905000", "111555.395000", "111556.885000", "111558.375000", "111559.865000", "111601.355000", "111602.845000", "111604.335000", "111605.825000", "111607.315000", "111608.805000", "111610.295000", "111611.785000", "111613.275000", "111614.765000", "111616.255000", "111617.745000", "111619.235000", "111620.725000", "111622.215000", "111623.705000", "111625.195000", "111626.685000", "111628.175000", "111629.665000", "111631.155000", "111632.645000", "111634.135000", "111635.625000", "111637.115000", "111638.605000", "111640.095000", "111641.585000", "111643.075000", "111644.565000", "111646.055000", "111647.545000", "111649.035000", "111650.525000", "111652.015000", "111653.505000", "111654.995000", "111656.485000", "111657.975000", "111659.465000", "111700.955000", "111702.445000", "111703.935000", "111705.425000", "111706.915000", "111708.405000", "111709.895000", "111711.385000", "111712.875000", "111714.365000", "111715.855000", "111717.345000", "111718.835000", "111720.325000", "111721.815000", "111723.305000", "111724.795000", "111726.285000", "111727.775000", "111729.265000", "111730.755000", "111732.245000", "111733.735000", "111735.225000", "111736.715000", "111738.205000", "111739.695000", "111741.185000", "111742.675000", "111744.165000", "111745.655000", "111747.145000", "111748.635000", "111750.125000", "111751.615000", "111753.105000", "111754.595000", "111756.085000", "111757.575000", "111759.065000", "111800.555000", "111802.045000", "111803.535000", "111805.025000", "111806.515000", "111808.005000", "111809.495000", "111810.985000", "111812.475000", "111813.965000", "111815.455000", "111816.945000", "111818.435000", "111819.925000", "111821.415000", "111822.905000", "111824.395000", "111825.885000", "111827.375000", "111828.865000", "111830.355000", "111831.845000", "111833.335000", "111834.825000", "111836.315000", "111837.805000", "111839.295000", "111840.785000", "111842.275000", "111843.765000", "111845.255000", "111846.745000", "111848.235000", "111849.725000", "111851.215000", "111852.705000", "111854.195000", "111855.685000", "111857.175000", "111858.665000", "111900.155000", "111901.645000", "111903.135000", "111904.625000", "111906.115000", "111907.605000", "111909.095000", "111910.585000", "111912.075000", "111913.565000", "111915.055000", "111916.545000", "111918.035000", "111919.525000", "111921.015000", "111922.505000", "111923.995000", "111925.485000", "111926.975000", "111928.465000", "111929.955000", "111931.445000", "111932.935000", "111934.425000", "111935.915000", "111937.405000", "111938.895000", "111940.385000", "111941.875000", "111943.365000", "111944.855000", "111946.345000", "111947.835000", "111949.325000", "111950.815000", "111952.305000", "111953.795000", "111955.285000", "111956.775000", "111958.265000", "111959.755000", "112001.245000", "112002.735000", "112004.225000", "112005.715000", "112007.205000", "112008.695000", "112010.185000", "112011.675000", "112013.165000", "112014.655000", "112016.145000", "112017.635000", "112019.125000", "112020.615000", "112022.105000", "112023.595000", "112025.085000", "112026.575000", "112028.065000", "112029.555000", "112031.045000", "112032.535000", "112034.025000", "112035.515000", "112037.005000", "112038.495000", "112039.985000", "112041.475000", "112042.965000", "112044.455000", "112045.945000", "112047.435000", "112048.925000", "112050.415000", "112051.905000", "112053.395000", "112054.885000", "112056.375000", "112057.865000", "112059.355000", "112100.845000", "112102.335000", "112103.825000", "112105.315000", "112106.805000", "112108.295000", "112109.785000", "112111.275000", "112112.765000", "112114.255000", "112115.745000", "112117.235000", "112118.725000", "112120.215000", "112121.705000", "112123.195000", "112124.685000", "112126.175000", "112127.665000", "112129.155000", "112130.645000", "112132.135000", "112133.625000", "112135.115000", "112136.605000", "112138.095000", "112139.585000", "112141.075000", "112142.565000", "112144.055000", "112145.545000", "112147.035000", "112148.525000", "112150.015000", "112151.505000", "112152.995000", "112154.485000", "112155.975000", "112157.465000", "112158.955000", "112200.445000", "112201.935000", "112203.425000", "112204.915000", "112206.405000", "112207.895000", "112209.385000", "112210.875000", "112212.365000", "112213.855000", "112215.345000", "112216.835000", "112218.325000", "112219.815000", "112221.305000", "112222.795000", "112224.285000", "112225.775000", "112227.265000", "112228.755000", "112230.245000", "112231.735000", "112233.225000", "112234.715000", "112236.205000", "112237.695000", "112239.185000", "112240.675000", "112242.165000", "112243.655000", "112245.145000", "112246.635000"],
      "ContentTime": ["111202.061000", "111202.064000", "111202.067000", "111202.070000", "111202.072000", "111202.075000", "111202.078000", "111202.081000", "111202.083000", "111202.086000", "111202.089000", "111202.092000", "111202.095000", "111202.098000", "111202.101000", "111202.108000", "111202.111000", "111202.114000", "111202.117000", "111202.120000", "111202.123000", "111202.125000", "111242.026000", "111242.029000", "111242.032000", "111242.034000", "111242.037000", "111242.040000", "111242.043000", "111242.046000", "111242.048000", "111242.051000", "111242.054000", "111242.057000", "111242.059000", "111242.062000", "111242.065000", "111242.068000", "111242.071000", "111242.074000", "111242.076000", "111242.087000", "111242.090000", "111242.093000", "111242.096000", "111242.099000", "111242.101000", "111242.111000", "111242.114000", "111242.117000", "111242.120000", "111242.123000", "111242.126000", "111242.128000", "111242.131000", "111242.134000", "111242.137000", "111242.140000", "111242.143000", "111242.146000", "111242.148000", "111302.026000", "111302.029000", "111302.032000", "111302.034000", "111302.037000", "111302.040000", "111302.043000", "111302.046000", "111302.048000", "111302.051000", "111302.054000", "111302.057000", "111302.060000", "111302.062000", "111302.065000", "111302.068000", "111302.071000", "111302.074000", "111302.077000", "111302.079000", "111322.026000", "111322.029000", "111322.031000", "111322.034000", "111322.037000", "111322.040000", "111322.043000", "111322.045000", "111322.048000", "111322.051000", "111322.054000", "111322.057000", "111322.060000", "111322.063000", "111322.066000", "111322.068000", "111322.071000", "111322.074000", "111322.077000", "111322.080000", "111342.026000", "111342.029000", "111342.032000", "111342.034000", "111342.037000", "111342.040000", "111342.043000", "111342.046000", "111342.048000", "111342.051000", "111342.054000", "111342.057000", "111342.060000", "111342.062000", "111342.065000", "111342.068000", "111342.071000", "111342.074000", "111342.077000", "111342.080000", "111342.082000", "111422.026000", "111422.029000", "111422.032000", "111422.034000", "111422.037000", "111422.040000", "111422.043000", "111422.046000", "111422.049000", "111422.051000", "111422.054000", "111422.057000", "111422.060000", "111422.062000", "111422.065000", "111422.068000", "111422.071000", "111422.074000", "111422.077000", "111422.079000", "111422.082000", "111422.085000", "111422.088000", "111422.091000", "111422.093000", "111422.097000", "111422.100000", "111502.026000", "111502.029000", "111502.032000", "111502.035000", "111502.037000", "111502.040000", "111502.043000", "111502.046000", "111502.049000", "111502.052000", "111502.054000", "111502.057000", "111502.060000", "111502.063000", "111502.066000", "111502.068000", "111502.071000", "111502.074000", "111502.077000", "111502.079000", "111502.095000", "111502.098000", "111502.100000", "111502.103000", "111502.106000", "111502.109000", "111502.118000", "111542.026000", "111542.029000", "111542.032000", "111542.035000", "111542.037000", "111542.040000", "111542.043000", "111542.046000", "111542.049000", "111542.052000", "111542.055000", "111542.058000", "111542.061000", "111542.063000", "111542.066000", "111542.069000", "111542.072000", "111542.075000", "111542.078000", "111542.080000", "111542.083000", "111542.086000", "111542.089000", "111542.092000", "111542.095000", "111542.098000", "111542.100000", "111622.026000", "111622.029000", "111622.032000", "111622.035000", "111622.037000", "111622.040000", "111622.043000", "111622.046000", "111622.049000", "111622.052000", "111622.054000", "111622.057000", "111622.060000", "111622.063000", "111622.066000", "111622.068000", "111622.071000", "111622.074000", "111622.077000", "111622.080000", "111622.082000", "111622.085000", "111622.088000", "111622.091000", "111622.094000", "111622.096000", "111622.099000", "111702.026000", "111702.029000", "111702.032000", "111702.035000", "111702.037000", "111702.040000", "111702.043000", "111702.046000", "111702.049000", "111702.052000", "111702.054000", "111702.057000", "111702.060000", "111702.063000", "111702.066000", "111702.069000", "111702.071000", "111702.074000", "111702.077000", "111702.080000", "111702.083000", "111702.085000", "111702.088000", "111702.091000", "111702.094000", "111702.097000", "111702.099000", "111742.026000", "111742.029000", "111742.032000", "111742.035000", "111742.038000", "111742.040000", "111742.043000", "111742.046000", "111742.049000", "111742.052000", "111742.055000", "111742.057000", "111742.060000", "111742.063000", "111742.066000", "111742.069000", "111742.071000", "111742.074000", "111742.077000", "111742.080000", "111742.083000", "111742.086000", "111742.088000", "111742.091000", "111742.094000", "111742.097000", "111742.100000", "111822.026000", "111822.029000", "111822.032000", "111822.035000", "111822.038000", "111822.041000", "111822.043000", "111822.046000", "111822.049000", "111822.052000", "111822.055000", "111822.058000", "111822.060000", "111822.063000", "111822.066000", "111822.069000", "111822.072000", "111822.075000", "111822.077000", "111822.080000", "111822.083000", "111822.086000", "111822.089000", "111822.092000", "111822.094000", "111822.097000", "111902.026000", "111902.029000", "111902.032000", "111902.035000", "111902.038000", "111902.040000", "111902.043000", "111902.046000", "111902.049000", "111902.052000", "111902.055000", "111902.058000", "111902.060000", "111902.063000", "111902.066000", "111902.069000", "111902.072000", "111902.075000", "111902.077000", "111902.080000", "111902.083000", "111902.086000", "111902.089000", "111902.091000", "111902.094000", "111902.097000", "111902.100000", "111942.026000", "111942.029000", "111942.032000", "111942.035000", "111942.038000", "111942.041000", "111942.044000", "111942.046000", "111942.049000", "111942.052000", "111942.055000", "111942.058000", "111942.061000", "111942.063000", "111942.066000", "111942.077000", "111942.080000", "111942.082000", "111942.085000", "111942.088000", "111942.091000", "111942.094000", "111942.096000", "111942.099000", "111942.102000", "111942.105000", "111942.108000", "112022.026000", "112022.029000", "112022.032000", "112022.034000", "112022.037000", "112022.040000", "112022.043000", "112022.046000", "112022.049000", "112022.052000", "112022.054000", "112022.057000", "112022.060000", "112022.063000", "112022.066000", "112022.069000", "112022.071000", "112022.074000", "112022.077000", "112022.080000", "112022.083000", "112022.085000", "112022.088000", "112022.091000", "112022.094000", "112022.097000", "112022.100000", "112102.026000", "112102.029000", "112102.032000", "112102.042000", "112102.045000", "112102.048000", "112102.050000", "112102.053000", "112102.056000", "112102.059000", "112102.062000", "112102.065000", "112102.068000", "112102.070000", "112102.073000", "112102.076000", "112102.079000", "112102.082000", "112102.085000", "112102.088000", "112102.091000", "112102.093000", "112102.096000", "112102.099000", "112102.102000", "112102.105000", "112102.108000", "112142.026000", "112142.029000", "112142.032000", "112142.035000", "112142.038000", "112142.040000", "112142.043000", "112142.046000", "112142.049000", "112142.052000", "112142.055000", "112142.057000", "112142.060000", "112142.063000", "112142.066000", "112142.069000", "112142.072000", "112142.075000", "112142.077000", "112142.080000", "112142.083000", "112142.086000", "112142.089000", "112142.091000", "112142.094000", "112142.097000", "112142.100000", "112202.026000", "112202.029000", "112202.032000", "112202.035000", "112202.037000", "112202.055000", "112202.058000", "112202.061000", "112202.064000", "112202.067000", "112202.070000", "112202.073000", "112202.076000", "112242.026000", "112242.029000", "112242.032000", "112242.035000", "112242.038000", "112242.040000", "112242.043000", "112242.046000", "112242.049000", "112242.052000", "112242.055000", "112242.058000", "112242.061000", "112242.064000", "112242.067000", "112242.069000", "112242.072000", "112242.081000", "112242.084000", "112242.087000", "112242.090000", "112242.092000", "112242.095000", "112242.098000", "112242.101000", "112242.104000", "112242.107000", "112249.927000", "112249.930000", "112249.933000", "112249.936000", "112249.939000"],
