{
  "AcquisitionMatrixPE": 104,
  "AcquisitionNumber": 1,
  "AcquisitionTime": "10:46:15.892500",
  "BandwidthPerPixelPhaseEncode": 17.17,
  "BaseResolution": 104,
  "BodyPartExamined": "BRAIN",
  "CoilString": "HC1-7;NC1_2",
  "ConsistencyInfo": "N4_VE11C_LATEST_20160120",
  "ConversionSoftware": "dcm2niix",
  "ConversionSoftwareVersion": "v1.0.20200427",
  "DerivedVendorReportedEchoSpacing": 0.000560011,
  "DeviceSerialNumber": "167006",
  "DwellTime": 2.1e-06,
  "EchoTime": 0.037,
  "EchoTrainLength": 104,
  "EffectiveEchoSpacing": 0.000560011,
  "FlipAngle": 52,
  "ImageComments": "Unaliased_MB4_PE3_LB",
  "ImageOrientationPatientDICOM": [0.999327, 0.0249512, 0.0268854, -0.00802331, 0.863929, -0.50355],
  "ImageType": [
    "ORIGINAL",
    "PRIMARY",
    "M",
    "MB",
    "ND",
    "MOSAIC"
],
  "ImagingFrequency": 123.259,
  "InPlanePhaseEncodingDirectionDICOM": "COL",
  "InstitutionAddress": "Chemin_Queen-Mary_4565_Montreal_District_CA_H3W_1W5",
  "InstitutionName": "IUGM",
  "InstitutionalDepartmentName": "Department",
  "MRAcquisitionType": "2D",
  "MagneticFieldStrength": 3,
  "Manufacturer": "Siemens",
  "ManufacturersModelName": "Prisma_fit",
  "Modality": "MR",
  "MultibandAccelerationFactor": 4,
  "PartialFourier": 1,
  "PatientPosition": "HFS",
  "PercentPhaseFOV": 100,
  "PercentSampling": 100,
  "PhaseEncodingDirection": "j",
  "PhaseEncodingSteps": 104,
  "PhaseResolution": 1,
  "PixelBandwidth": 2290,
  "ProcedureStepDescription": "games_shinobi",
  "ProtocolName": "func_task-shinobi_run-1",
  "PulseSequenceDetails": "%CustomerSeq%_cmrr_mbep2d_bold",
  "ReceiveCoilActiveElements": "HC1-7;NC1,2",
  "ReceiveCoilName": "HeadNeck_64",
  "ReconMatrixPE": 104,
  "RepetitionTime": 1.49,
  "SAR": 0.0295658,
  "ScanOptions": "FS",
  "ScanningSequence": "EP",
  "SequenceName": "epfid2d1_104",
  "SequenceVariant": "SK_SS",
  "SeriesDescription": "func_task-shinobi_run-1",
  "SeriesNumber": 9,
  "ShimSetting": [624, -7205, -8892, 379, -23, -162, 33, -16],
  "SliceThickness": 2,
  "SliceTiming": [0, 0.7825, 0.0975, 0.88, 0.195, 0.98, 0.2925, 1.0775, 0.39, 1.175, 0.49, 1.2725, 0.5875, 1.37, 0.685, 0, 0.7825, 0.0975, 0.88, 0.195, 0.98, 0.2925, 1.0775, 0.39, 1.175, 0.49, 1.2725, 0.5875, 1.37, 0.685, 0, 0.7825, 0.0975, 0.88, 0.195, 0.98, 0.2925, 1.0775, 0.39, 1.175, 0.49, 1.2725, 0.5875, 1.37, 0.685, 0, 0.7825, 0.0975, 0.88, 0.195, 0.98, 0.2925, 1.0775, 0.39, 1.175, 0.49, 1.2725, 0.5875, 1.37, 0.685],
  "SoftwareVersions": "syngo_MR_E11",
  "SpacingBetweenSlices": 2,
  "StationName": "MRC35049",
  "TaskName": "shinobi",
  "TotalReadoutTime": 0.0576811,
  "TxRefAmp": 235.065,
  "WipMemBlock": "f883f4d0-edae-419a-b1fb-44acfec02482||Sequence: R016 ve11c/master r/e634e98; Dec 19 2017 11:00:25 by eja",
  "dcmmeta_affine": [
    [-1.9986541271209717, -0.01604662649333477, 0.0715823844075203, 106.60261535644531],
    [-0.04990231618285179, 1.727858066558838, -1.0059902667999268, -48.512081146240234],
    [0.053770724684000015, 1.0070993900299072, 1.7270957231521606, -99.07884216308594],
    [0.0, 0.0, 0.0, 1.0]
],
  "dcmmeta_reorient_transform": [
    [0.0, -1.0, 0.0, 103.0],
    [1.0, 0.0, 0.0, 0.0],
    [0.0, 0.0, 1.0, 0.0],
    [0.0, 0.0, 0.0, 1.0]
],
  "dcmmeta_shape": [104, 104, 60, 417],
  "dcmmeta_slice_dim": 2,
  "dcmmeta_version": 0.6,
  "global": {
    "const": {
      "AcquisitionMatrix": [104, 0, 0, 104],
      "AngioFlag": "N",
      "BitsAllocated": 16,
      "BitsStored": 16,
      "BodyPartExamined": "BRAIN",
      "Columns": 832,
      "EchoNumbers": 1,
      "EchoTime": 37.0,
      "EchoTrainLength": 104,
      "FlipAngle": 52.0,
      "HighBit": 15,
      "ImageOrientationPatient": [0.99932708206041, 0.0249511585023, 0.02688536311862, -0.0080233131258, 0.86392902046669, -0.5035496738575],
      "ImagePositionPatient": [-826.61895912413, -776.56206851524, 351.66400646148],
      "ImageType": [
        "ORIGINAL",
        "PRIMARY",
        "M",
        "MB",
        "ND",
        "MOSAIC"
],
      "ImagedNucleus": "1H",
      "ImagingFrequency": 123.259076,
      "InPlanePhaseEncodingDirection": "COL",
      "MRAcquisitionType": "2D",
      "MagneticFieldStrength": 3.0,
      "Manufacturer": "SIEMENS",
      "ManufacturerModelName": "Prisma_fit",
      "Modality": "MR",
      "NumberOfAverages": 1.0,
      "NumberOfPhaseEncodingSteps": 104,
      "PercentPhaseFieldOfView": 100.0,
      "PercentSampling": 100.0,
      "PerformedProcedureStepStartTime": "103731.095000",
      "PhotometricInterpretation": "MONOCHROME2",
      "PixelBandwidth": 2290.0,
      "PixelRepresentation": 0,
      "PixelSpacing": [2.0, 2.0],
      "ProtocolName": "func_task-shinobi_run-1",
      "RepetitionTime": 1490.0,
      "Rows": 832,
      "SAR": 0.0295658151051,
      "SamplesPerPixel": 1,
      "ScanOptions": "FS",
      "ScanningSequence": "EP",
      "SequenceName": "epfid2d1_104",
      "SequenceVariant": [
        "SK",
        "SS"
],
      "SeriesDescription": "func_task-shinobi_run-1",
      "SeriesNumber": 9,
      "SeriesTime": "104729.916000",
      "SliceLocation": -57.342549796198,
      "SliceThickness": 2.0,
      "SmallestImagePixelValue": 0,
      "SoftwareVersions": "syngo MR E11",
      "SpacingBetweenSlices": 1.999999987593,
      "SpecificCharacterSet": "ISO_IR 100",
      "StudyID": "1",
      "StudyTime": "103731.037000",
      "TransmitCoilName": "Body",
      "VariableFlipAngleFlag": "N",
      "WindowCenterWidthExplanation": "Algo1",
      "dBdt": 0.0},
    "slices": {}
  },
  "time": {
    "samples": {
      "AcquisitionNumber": [1, 2, 3, 4, 5, 6, 7, 8, 9, 10, 11, 12, 13, 14, 15, 16, 17, 18, 19, 20, 21, 22, 23, 24, 25, 26, 27, 28, 29, 30, 31, 32, 33, 34, 35, 36, 37, 38, 39, 40, 41, 42, 43, 44, 45, 46, 47, 48, 49, 50, 51, 52, 53, 54, 55, 56, 57, 58, 59, 60, 61, 62, 63, 64, 65, 66, 67, 68, 69, 70, 71, 72, 73, 74, 75, 76, 77, 78, 79, 80, 81, 82, 83, 84, 85, 86, 87, 88, 89, 90, 91, 92, 93, 94, 95, 96, 97, 98, 99, 100, 101, 102, 103, 104, 105, 106, 107, 108, 109, 110, 111, 112, 113, 114, 115, 116, 117, 118, 119, 120, 121, 122, 123, 124, 125, 126, 127, 128, 129, 130, 131, 132, 133, 134, 135, 136, 137, 138, 139, 140, 141, 142, 143, 144, 145, 146, 147, 148, 149, 150, 151, 152, 153, 154, 155, 156, 157, 158, 159, 160, 161, 162, 163, 164, 165, 166, 167, 168, 169, 170, 171, 172, 173, 174, 175, 176, 177, 178, 179, 180, 181, 182, 183, 184, 185, 186, 187, 188, 189, 190, 191, 192, 193, 194, 195, 196, 197, 198, 199, 200, 201, 202, 203, 204, 205, 206, 207, 208, 209, 210, 211, 212, 213, 214, 215, 216, 217, 218, 219, 220, 221, 222, 223, 224, 225, 226, 227, 228, 229, 230, 231, 232, 233, 234, 235, 236, 237, 238, 239, 240, 241, 242, 243, 244, 245, 246, 247, 248, 249, 250, 251, 252, 253, 254, 255, 256, 257, 258, 259, 260, 261, 262, 263, 264, 265, 266, 267, 268, 269, 270, 271, 272, 273, 274, 275, 276, 277, 278, 279, 280, 281, 282, 283, 284, 285, 286, 287, 288, 289, 290, 291, 292, 293, 294, 295, 296, 297, 298, 299, 300, 301, 302, 303, 304, 305, 306, 307, 308, 309, 310, 311, 312, 313, 314, 315, 316, 317, 318, 319, 320, 321, 322, 323, 324, 325, 326, 327, 328, 329, 330, 331, 332, 333, 334, 335, 336, 337, 338, 339, 340, 341, 342, 343, 344, 345, 346, 347, 348, 349, 350, 351, 352, 353, 354, 355, 356, 357, 358, 359, 360, 361, 362, 363, 364, 365, 366, 367, 368, 369, 370, 371, 372, 373, 374, 375, 376, 377, 378, 379, 380, 381, 382, 383, 384, 385, 386, 387, 388, 389, 390, 391, 392, 393, 394, 395, 396, 397, 398, 399, 400, 401, 402, 403, 404, 405, 406, 407, 408, 409, 410, 411, 412, 413, 414, 415, 416, 417],
      "AcquisitionTime": ["104615.892500", "104617.382500", "104618.872500", "104620.362500", "104621.852500", "104623.342500", "104624.832500", "104626.322500", "104627.812500", "104629.302500", "104630.792500", "104632.282500", "104633.772500", "104635.262500", "104636.752500", "104638.242500", "104639.732500", "104641.222500", "104642.712500", "104644.202500", "104645.692500", "104647.182500", "104648.672500", "104650.162500", "104651.652500", "104653.142500", "104654.632500", "104656.122500", "104657.612500", "104659.102500", "104700.592500", "104702.082500", "104703.572500", "104705.062500", "104706.552500", "104708.042500", "104709.532500", "104711.022500", "104712.512500", "104714.002500", "104715.492500", "104716.982500", "104718.472500", "104719.962500", "104721.452500", "104722.942500", "104724.432500", "104725.922500", "104727.412500", "104728.902500", "104730.392500", "104731.882500", "104733.372500", "104734.862500", "104736.352500", "104737.842500", "104739.332500", "104740.822500", "104742.312500", "104743.802500", "104745.292500", "104746.782500", "104748.272500", "104749.762500", "104751.252500", "104752.742500", "104754.232500", "104755.722500", "104757.212500", "104758.702500", "104800.192500", "104801.682500", "104803.172500", "104804.662500", "104806.152500", "104807.642500", "104809.132500", "104810.622500", "104812.112500", "104813.602500", "104815.092500", "104816.582500", "104818.072500", "104819.562500", "104821.052500", "104822.542500", "104824.032500", "104825.522500", "104827.012500", "104828.502500", "104829.992500", "104831.482500", "104832.972500", "104834.462500", "104835.952500", "104837.442500", "104838.932500", "104840.422500", "104841.912500", "104843.402500", "104844.892500", "104846.382500", "104847.872500", "104849.362500", "104850.852500", "104852.342500", "104853.832500", "104855.322500", "104856.812500", "104858.302500", "104859.792500", "104901.282500", "104902.772500", "104904.262500", "104905.752500", "104907.242500", "104908.732500", "104910.222500", "104911.712500", "104913.202500", "104914.692500", "104916.182500", "104917.672500", "104919.162500", "104920.652500", "104922.142500", "104923.632500", "104925.122500", "104926.612500", "104928.102500", "104929.592500", "104931.082500", "104932.572500", "104934.062500", "104935.552500", "104937.042500", "104938.532500", "104940.022500", "104941.512500", "104943.002500", "104944.492500", "104945.982500", "104947.472500", "104948.962500", "104950.452500", "104951.942500", "104953.432500", "104954.922500", "104956.412500", "104957.902500", "104959.392500", "105000.882500", "105002.372500", "105003.862500", "105005.352500", "105006.842500", "105008.332500", "105009.822500", "105011.312500", "105012.802500", "105014.292500", "105015.782500", "105017.272500", "105018.762500", "105020.252500", "105021.742500", "105023.232500", "105024.722500", "105026.212500", "105027.702500", "105029.192500", "105030.682500", "105032.172500", "105033.662500", "105035.152500", "105036.642500", "105038.132500", "105039.622500", "105041.112500", "105042.602500", "105044.092500", "105045.582500", "105047.072500", "105048.562500", "105050.052500", "105051.542500", "105053.032500", "105054.522500", "105056.012500", "105057.502500", "105058.992500", "105100.482500", "105101.972500", "105103.462500", "105104.952500", "105106.442500", "105107.932500", "105109.422500", "105110.912500", "105112.402500", "105113.892500", "105115.382500", "105116.872500", "105118.362500", "105119.852500", "105121.342500", "105122.832500", "105124.322500", "105125.812500", "105127.302500", "105128.792500", "105130.282500", "105131.772500", "105133.262500", "105134.752500", "105136.242500", "105137.732500", "105139.222500", "105140.712500", "105142.202500", "105143.692500", "105145.182500", "105146.672500", "105148.162500", "105149.652500", "105151.142500", "105152.632500", "105154.122500", "105155.612500", "105157.102500", "105158.592500", "105200.082500", "105201.572500", "105203.062500", "105204.552500", "105206.042500", "105207.532500", "105209.022500", "105210.512500", "105212.002500", "105213.492500", "105214.982500", "105216.472500", "105217.962500", "105219.452500", "105220.942500", "105222.432500", "105223.922500", "105225.412500", "105226.902500", "105228.392500", "105229.882500", "105231.372500", "105232.862500", "105234.352500", "105235.842500", "105237.332500", "105238.822500", "105240.312500", "105241.802500", "105243.292500", "105244.782500", "105246.272500", "105247.762500", "105249.252500", "105250.742500", "105252.232500", "105253.722500", "105255.212500", "105256.702500", "105258.192500", "105259.682500", "105301.172500", "105302.662500", "105304.152500", "105305.642500", "105307.132500", "105308.622500", "105310.112500", "105311.602500", "105313.092500", "105314.582500", "105316.072500", "105317.562500", "105319.052500", "105320.542500", "105322.032500", "105323.522500", "105325.012500", "105326.502500", "105327.992500", "105329.482500", "105330.972500", "105332.462500", "105333.952500", "105335.442500", "105336.932500", "105338.422500", "105339.912500", "105341.402500", "105342.892500", "105344.382500", "105345.872500", "105347.362500", "105348.852500", "105350.342500", "105351.832500", "105353.322500", "105354.812500", "105356.302500", "105357.792500", "105359.282500", "105400.772500", "105402.262500", "105403.752500", "105405.242500", "105406.732500", "105408.222500", "105409.712500", "105411.202500", "105412.692500", "105414.182500", "105415.672500", "105417.162500", "105418.652500", "105420.142500", "105421.632500", "105423.122500", "105424.612500", "105426.102500", "105427.592500", "105429.082500", "105430.572500", "105432.062500", "105433.552500", "105435.042500", "105436.532500", "105438.022500", "105439.512500", "105441.002500", "105442.492500", "105443.982500", "105445.472500", "105446.962500", "105448.452500", "105449.942500", "105451.432500", "105452.922500", "105454.412500", "105455.902500", "105457.392500", "105458.882500", "105500.372500", "105501.862500", "105503.352500", "105504.842500", "105506.332500", "105507.822500", "105509.312500", "105510.802500", "105512.292500", "105513.782500", "105515.272500", "105516.762500", "105518.252500", "105519.742500", "105521.232500", "105522.722500", "105524.212500", "105525.702500", "105527.192500", "105528.682500", "105530.172500", "105531.662500", "105533.152500", "105534.642500", "105536.132500", "105537.622500", "105539.112500", "105540.602500", "105542.092500", "105543.582500", "105545.072500", "105546.562500", "105548.052500", "105549.542500", "105551.032500", "105552.522500", "105554.012500", "105555.502500", "105556.992500", "105558.482500", "105559.972500", "105601.462500", "105602.952500", "105604.442500", "105605.932500", "105607.422500", "105608.912500", "105610.402500", "105611.892500", "105613.382500", "105614.872500", "105616.362500", "105617.852500", "105619.342500", "105620.832500", "105622.322500", "105623.812500", "105625.302500", "105626.792500", "105628.282500", "105629.772500", "105631.262500", "105632.752500", "105634.242500", "105635.732500"],
      "ContentTime": ["104729.919000", "104729.922000", "104729.925000", "104729.928000", "104729.931000", "104729.934000", "104729.937000", "104729.940000", "104729.943000", "104729.946000", "104729.949000", "104729.952000", "104729.955000", "104729.958000", "104729.960000", "104729.971000", "104729.974000", "104729.983000", "104729.986000", "104729.995000", "104749.893000", "104749.896000", "104749.899000", "104749.902000", "104749.905000", "104749.908000", "104749.911000", "104749.914000", "104749.917000", "104749.920000", "104749.923000", "104749.926000", "104749.929000", "104749.932000", "104749.935000", "104749.938000", "104749.940000", "104749.943000", "104749.947000", "104749.949000", "104809.893000", "104809.896000", "104809.902000", "104809.905000", "104809.908000", "104809.911000", "104809.914000", "104809.917000", "104809.920000", "104809.923000", "104809.926000", "104809.929000", "104809.932000", "104809.935000", "104809.938000", "104809.941000", "104809.944000", "104809.947000", "104809.950000", "104809.953000", "104829.893000", "104829.896000", "104829.899000", "104829.902000", "104829.911000", "104829.914000", "104829.917000", "104829.920000", "104829.923000", "104829.926000", "104829.928000", "104829.931000", "104829.935000", "104829.937000", "104829.940000", "104829.943000", "104829.946000", "104829.949000", "104829.952000", "104829.955000", "104829.958000", "104849.893000", "104849.896000", "104849.899000", "104849.903000", "104849.906000", "104849.909000", "104849.912000", "104849.916000", "104849.919000", "104849.923000", "104849.926000", "104849.929000", "104849.932000", "104849.935000", "104849.938000", "104849.942000", "104849.945000", "104849.947000", "104849.951000", "104849.955000", "104929.893000", "104929.896000", "104929.899000", "104929.902000", "104929.905000", "104929.908000", "104929.911000", "104929.914000", "104929.918000", "104929.921000", "104929.924000", "104929.927000", "104929.930000", "104929.934000", "104929.937000", "104929.940000", "104929.943000", "104929.946000", "104929.949000", "104929.951000", "104929.954000", "104929.958000", "104929.960000", "104929.963000", "104929.966000", "104929.969000", "104929.972000", "104929.975000", "104949.893000", "104949.896000", "104949.899000", "104949.902000", "104949.905000", "104949.908000", "104949.911000", "104949.914000", "104949.917000", "104949.920000", "104949.923000", "104949.926000", "104949.929000", "104949.932000", "105029.893000", "105029.896000", "105029.899000", "105029.902000", "105029.905000", "105029.908000", "105029.911000", "105029.914000", "105029.917000", "105029.920000", "105029.923000", "105029.926000", "105029.929000", "105029.932000", "105029.935000", "105029.938000", "105029.941000", "105029.944000", "105029.947000", "105029.950000", "105029.953000", "105029.956000", "105029.959000", "105029.962000", "105029.965000", "105029.968000", "105029.971000", "105109.893000", "105109.896000", "105109.899000", "105109.902000", "105109.905000", "105109.908000", "105109.911000", "105109.914000", "105109.917000", "105109.920000", "105109.923000", "105109.926000", "105109.929000", "105109.932000", "105109.935000", "105109.938000", "105109.941000", "105109.944000", "105109.947000", "105109.950000", "105109.953000", "105109.956000", "105109.959000", "105109.962000", "105109.965000", "105109.968000", "105109.971000", "105149.894000", "105149.897000", "105149.900000", "105149.903000", "105149.906000", "105149.919000", "105149.921000", "105149.925000", "105149.928000", "105149.930000", "105149.933000", "105149.937000", "105149.939000", "105149.942000", "105149.945000", "105149.948000", "105149.951000", "105149.954000", "105149.957000", "105149.961000", "105149.964000", "105149.966000", "105149.969000", "105149.973000", "105149.976000", "105149.979000", "105229.893000", "105229.896000", "105229.899000", "105229.902000", "105229.905000", "105229.908000", "105229.911000", "105229.914000", "105229.917000", "105229.920000", "105229.923000", "105229.926000", "105229.929000", "105229.932000", "105229.935000", "105229.938000", "105229.941000", "105229.944000", "105229.947000", "105229.950000", "105229.953000", "105229.956000", "105229.959000", "105229.962000", "105229.965000", "105229.968000", "105229.971000", "105309.893000", "105309.896000", "105309.899000", "105309.902000", "105309.905000", "105309.908000", "105309.911000", "105309.914000", "105309.917000", "105309.920000", "105309.932000", "105309.935000", "105309.938000", "105309.941000", "105309.944000", "105309.947000", "105309.950000", "105309.953000", "105309.956000", "105309.959000", "105309.962000", "105309.965000", "105309.968000", "105309.971000", "105309.974000", "105309.977000", "105309.980000", "105349.893000", "105349.896000", "105349.899000", "105349.902000", "105349.905000", "105349.908000", "105349.911000", "105349.914000", "105349.917000", "105349.920000", "105349.923000", "105349.926000", "105349.929000", "105349.932000", "105349.935000", "105349.938000", "105349.941000", "105349.944000", "105349.947000", "105349.950000", "105349.953000", "105349.956000", "105349.959000", "105349.962000", "105349.965000", "105349.968000", "105349.971000", "105429.893000", "105429.896000", "105429.899000", "105429.902000", "105429.905000", "105429.908000", "105429.911000", "105429.914000", "105429.917000", "105429.920000", "105429.923000", "105429.926000", "105429.929000", "105429.932000", "105429.935000", "105429.938000", "105429.941000", "105429.944000", "105429.947000", "105429.950000", "105429.953000", "105429.956000", "105429.959000", "105429.962000", "105429.965000", "105429.968000", "105429.971000", "105509.893000", "105509.896000", "105509.899000", "105509.902000", "105509.905000", "105509.908000", "105509.911000", "105509.914000", "105509.917000", "105509.920000", "105509.923000", "105509.926000", "105509.929000", "105509.932000", "105509.935000", "105509.938000", "105509.941000", "105509.944000", "105509.947000", "105509.950000", "105509.953000", "105509.956000", "105509.959000", "105509.962000", "105509.965000", "105509.968000", "105509.970000", "105549.893000", "105549.896000", "105549.899000", "105549.902000", "105549.905000", "105549.908000", "105549.911000", "105549.914000", "105549.917000", "105549.920000", "105549.923000", "105549.926000", "105549.929000", "105549.932000", "105549.935000", "105549.938000", "105549.941000", "105549.944000", "105549.947000", "105549.950000", "105549.953000", "105549.956000", "105549.959000", "105549.962000", "105549.965000", "105549.968000", "105549.971000", "105629.893000", "105629.896000", "105629.899000", "105629.902000", "105629.905000", "105629.908000", "105629.911000", "105629.914000", "105629.917000", "105629.930000", "105629.933000", "105629.936000", "105629.939000", "105629.942000", "105629.945000", "105629.948000", "105629.951000", "105629.954000", "105629.958000", "105629.961000", "105629.980000", "105629.983000", "105629.986000", "105629.989000", "105629.992000", "105629.995000", "105637.768000", "105637.771000", "105637.774000", "105637.777000", "105637.780000", "105637.783000"],
      "InstanceCreationTime": ["104729.919000", "104729.922000", "104729.925000", "104729.928000", "104729.931000", "104729.934000", "104729.937000", "104729.940000", "104729.943000", "104729.946000", "104729.949000", "104729.952000", "104729.955000", "104729.958000", "104729.960000", "104729.971000", "104729.974000", "104729.983000", "104729.986000", "104729.995000", "104749.893000", "104749.896000", "104749.899000", "104749.902000", "104749.905000", "104749.908000", "104749.911000", "104749.914000", "104749.917000", "104749.920000", "104749.923000", "104749.926000", "104749.929000", "104749.932000", "104749.935000", "104749.938000", "104749.940000", "104749.943000", "104749.947000", "104749.949000", "104809.893000", "104809.896000", "104809.902000", "104809.905000", "104809.908000", "104809.911000", "104809.914000", "104809.917000", "104809.920000", "104809.923000", "104809.926000", "104809.929000", "104809.932000", "104809.935000", "104809.938000", "104809.941000", "104809.944000", "104809.947000", "104809.950000", "104809.953000", "104829.893000", "104829.896000", "104829.899000", "104829.902000", "104829.911000", "104829.914000", "104829.917000", "104829.920000", "104829.923000", "104829.926000", "104829.928000", "104829.931000", "104829.935000", "104829.937000", "104829.940000", "104829.943000", "104829.946000", "104829.949000", "104829.952000", "104829.955000", "104829.958000", "104849.893000", "104849.896000", "104849.899000", "104849.903000", "104849.906000", "104849.909000", "104849.912000", "104849.916000", "104849.919000", "104849.923000", "104849.926000", "104849.929000", "104849.932000", "104849.935000", "104849.938000", "104849.942000", "104849.945000", "104849.947000", "104849.951000", "104849.955000", "104929.893000", "104929.896000", "104929.899000", "104929.902000", "104929.905000", "104929.908000", "104929.911000", "104929.914000", "104929.918000", "104929.921000", "104929.924000", "104929.927000", "104929.930000", "104929.934000", "104929.937000", "104929.940000", "104929.943000", "104929.946000", "104929.949000", "104929.951000", "104929.954000", "104929.958000", "104929.960000", "104929.963000", "104929.966000", "104929.969000", "104929.972000", "104929.975000", "104949.893000", "104949.896000", "104949.899000", "104949.902000", "104949.905000", "104949.908000", "104949.911000", "104949.914000", "104949.917000", "104949.920000", "104949.923000", "104949.926000", "104949.929000", "104949.932000", "105029.893000", "105029.896000", "105029.899000", "105029.902000", "105029.905000", "105029.908000", "105029.911000", "105029.914000", "105029.917000", "105029.920000", "105029.923000", "105029.926000", "105029.929000", "105029.932000", "105029.935000", "105029.938000", "105029.941000", "105029.944000", "105029.947000", "105029.950000", "105029.953000", "105029.956000", "105029.959000", "105029.962000", "105029.965000", "105029.968000", "105029.971000", "105109.893000", "105109.896000", "105109.899000", "105109.902000", "105109.905000", "105109.908000", "105109.911000", "105109.914000", "105109.917000", "105109.920000", "105109.923000", "105109.926000", "105109.929000", "105109.932000", "105109.935000", "105109.938000", "105109.941000", "105109.944000", "105109.947000", "105109.950000", "105109.953000", "105109.956000", "105109.959000", "105109.962000", "105109.965000", "105109.968000", "105109.971000", "105149.894000", "105149.897000", "105149.900000", "105149.903000", "105149.906000", "105149.919000", "105149.921000", "105149.925000", "105149.928000", "105149.930000", "105149.933000", "105149.937000", "105149.939000", "105149.942000", "105149.945000", "105149.948000", "105149.951000", "105149.954000", "105149.957000", "105149.961000", "105149.964000", "105149.966000", "105149.969000", "105149.973000", "105149.976000", "105149.979000", "105229.893000", "105229.896000", "105229.899000", "105229.902000", "105229.905000", "105229.908000", "105229.911000", "105229.914000", "105229.917000", "105229.920000", "105229.923000", "105229.926000", "105229.929000", "105229.932000", "105229.935000", "105229.938000", "105229.941000", "105229.944000", "105229.947000", "105229.950000", "105229.953000", "105229.956000", "105229.959000", "105229.962000", "105229.965000", "105229.968000", "105229.971000", "105309.893000", "105309.896000", "105309.899000", "105309.902000", "105309.905000", "105309.908000", "105309.911000", "105309.914000", "105309.917000", "105309.920000", "105309.932000", "105309.935000", "105309.938000", "105309.941000", "105309.944000", "105309.947000", "105309.950000", "105309.953000", "105309.956000", "105309.959000", "105309.962000", "105309.965000", "105309.968000", "105309.971000", "105309.974000", "105309.977000", "105309.980000", "105349.893000", "105349.896000", "105349.899000", "105349.902000", "105349.905000", "105349.908000", "105349.911000", "105349.914000", "105349.917000", "105349.920000", "105349.923000", "105349.926000", "105349.929000", "105349.932000", "105349.935000", "105349.938000", "105349.941000", "105349.944000", "105349.947000", "105349.950000", "105349.953000", "105349.956000", "105349.959000", "105349.962000", "105349.965000", "105349.968000", "105349.971000", "105429.893000", "105429.896000", "105429.899000", "105429.902000", "105429.905000", "105429.908000", "105429.911000", "105429.914000", "105429.917000", "105429.920000", "105429.923000", "105429.926000", "105429.929000", "105429.932000", "105429.935000", "105429.938000", "105429.941000", "105429.944000", "105429.947000", "105429.950000", "105429.953000", "105429.956000", "105429.959000", "105429.962000", "105429.965000", "105429.968000", "105429.971000", "105509.893000", "105509.896000", "105509.899000", "105509.902000", "105509.905000", "105509.908000", "105509.911000", "105509.914000", "105509.917000", "105509.920000", "105509.923000", "105509.926000", "105509.929000", "105509.932000", "105509.935000", "105509.938000", "105509.941000", "105509.944000", "105509.947000", "105509.950000", "105509.953000", "105509.956000", "105509.959000", "105509.962000", "105509.965000", "105509.968000", "105509.970000", "105549.893000", "105549.896000", "105549.899000", "105549.902000", "105549.905000", "105549.908000", "105549.911000", "105549.914000", "105549.917000", "105549.920000", "105549.923000", "105549.926000", "105549.929000", "105549.932000", "105549.935000", "105549.938000", "105549.941000", "105549.944000", "105549.947000", "105549.950000", "105549.953000", "105549.956000", "105549.959000", "105549.962000", "105549.965000", "105549.968000", "105549.971000", "105629.893000", "105629.896000", "105629.899000", "105629.902000", "105629.905000", "105629.908000", "105629.911000", "105629.914000", "105629.917000", "105629.930000", "105629.933000", "105629.936000", "105629.939000", "105629.942000", "105629.945000", "105629.948000", "105629.951000", "105629.954000", "105629.958000", "105629.961000", "105629.980000", "105629.983000", "105629.986000", "105629.989000", "105629.992000", "105629.995000", "105637.768000", "105637.771000", "105637.774000", "105637.777000", "105637.780000", "105637.783000"],
