{
  "AcquisitionMatrixPE": 104,
  "AcquisitionNumber": 1,
  "AcquisitionTime": "11:18:27.515000",
  "BandwidthPerPixelPhaseEncode": 17.17,
  "BaseResolution": 104,
  "BodyPartExamined": "BRAIN",
  "CoilString": "HC1-7;NC1_2",
  "ConsistencyInfo": "N4_VE11C_LATEST_20160120",
  "ConversionSoftware": "dcm2niix",
  "ConversionSoftwareVersion": "v1.0.20200427",
  "DerivedVendorReportedEchoSpacing": 0.000560011,
  "DeviceSerialNumber": "167006",
  "DwellTime": 2.1e-06,
  "EchoTime": 0.037,
  "EchoTrainLength": 104,
  "EffectiveEchoSpacing": 0.000560011,
  "FlipAngle": 52,
  "ImageComments": "Unaliased_MB4_PE3_LB",
  "ImageOrientationPatientDICOM": [0.999327, 0.0249512, 0.0268854, -0.00802331, 0.863929, -0.50355],
  "ImageType": [
    "ORIGINAL",
    "PRIMARY",
    "M",
    "MB",
    "ND",
    "MOSAIC"
],
  "ImagingFrequency": 123.259,
  "InPlanePhaseEncodingDirectionDICOM": "COL",
  "InstitutionAddress": "Chemin_Queen-Mary_4565_Montreal_District_CA_H3W_1W5",
  "InstitutionName": "IUGM",
  "InstitutionalDepartmentName": "Department",
  "MRAcquisitionType": "2D",
  "MagneticFieldStrength": 3,
  "Manufacturer": "Siemens",
  "ManufacturersModelName": "Prisma_fit",
  "Modality": "MR",
  "MultibandAccelerationFactor": 4,
  "PartialFourier": 1,
  "PatientPosition": "HFS",
  "PercentPhaseFOV": 100,
  "PercentSampling": 100,
  "PhaseEncodingDirection": "j",
  "PhaseEncodingSteps": 104,
  "PhaseResolution": 1,
  "PixelBandwidth": 2290,
  "ProcedureStepDescription": "games_shinobi",
  "ProtocolName": "func_task-shinobi_run-3",
  "PulseSequenceDetails": "%CustomerSeq%_cmrr_mbep2d_bold",
  "ReceiveCoilActiveElements": "HC1-7;NC1,2",
  "ReceiveCoilName": "HeadNeck_64",
  "ReconMatrixPE": 104,
  "RepetitionTime": 1.49,
  "SAR": 0.0295658,
  "ScanOptions": "FS",
  "ScanningSequence": "EP",
  "SequenceName": "epfid2d1_104",
  "SequenceVariant": "SK_SS",
  "SeriesDescription": "func_task-shinobi_run-3",
  "SeriesNumber": 13,
  "ShimSetting": [624, -7205, -8892, 379, -23, -162, 33, -16],
  "SliceThickness": 2,
  "SliceTiming": [0, 0.785, 0.0975, 0.8825, 0.195, 0.98, 0.295, 1.0775, 0.3925, 1.175, 0.49, 1.275, 0.5875, 1.3725, 0.685, 0, 0.785, 0.0975, 0.8825, 0.195, 0.98, 0.295, 1.0775, 0.3925, 1.175, 0.49, 1.275, 0.5875, 1.3725, 0.685, 0, 0.785, 0.0975, 0.8825, 0.195, 0.98, 0.295, 1.0775, 0.3925, 1.175, 0.49, 1.275, 0.5875, 1.3725, 0.685, 0, 0.785, 0.0975, 0.8825, 0.195, 0.98, 0.295, 1.0775, 0.3925, 1.175, 0.49, 1.275, 0.5875, 1.3725, 0.685],
  "SoftwareVersions": "syngo_MR_E11",
  "SpacingBetweenSlices": 2,
  "StationName": "MRC35049",
  "TaskName": "shinobi",
  "TotalReadoutTime": 0.0576811,
  "TxRefAmp": 235.065,
  "WipMemBlock": "d72599bc-e698-48bc-b08d-a82721c9efbc||Sequence: R016 ve11c/master r/e634e98; Dec 19 2017 11:00:25 by eja",
  "dcmmeta_affine": [
    [-1.9986541271209717, -0.01604662649333477, 0.0715823844075203, 106.60261535644531],
    [-0.04990231618285179, 1.727858066558838, -1.0059902667999268, -48.512081146240234],
    [0.053770724684000015, 1.0070993900299072, 1.7270957231521606, -99.07884216308594],
    [0.0, 0.0, 0.0, 1.0]
],
  "dcmmeta_reorient_transform": [
    [0.0, -1.0, 0.0, 103.0],
    [1.0, 0.0, 0.0, 0.0],
    [0.0, 0.0, 1.0, 0.0],
    [0.0, 0.0, 0.0, 1.0]
],
  "dcmmeta_shape": [104, 104, 60, 484],
  "dcmmeta_slice_dim": 2,
  "dcmmeta_version": 0.6,
  "global": {
    "const": {
      "AcquisitionMatrix": [104, 0, 0, 104],
      "AngioFlag": "N",
      "BitsAllocated": 16,
      "BitsStored": 16,
      "BodyPartExamined": "BRAIN",
      "Columns": 832,
      "EchoNumbers": 1,
      "EchoTime": 37.0,
      "EchoTrainLength": 104,
      "FlipAngle": 52.0,
      "HighBit": 15,
      "ImageOrientationPatient": [0.99932708206041, 0.0249511585023, 0.02688536311862, -0.0080233131258, 0.86392902046669, -0.5035496738575],
      "ImagePositionPatient": [-826.61895912413, -776.56206851524, 351.66400646148],
      "ImageType": [
        "ORIGINAL",
        "PRIMARY",
        "M",
        "MB",
        "ND",
        "MOSAIC"
],
      "ImagedNucleus": "1H",
      "ImagingFrequency": 123.259081,
      "InPlanePhaseEncodingDirection": "COL",
      "MRAcquisitionType": "2D",
      "MagneticFieldStrength": 3.0,
      "Manufacturer": "SIEMENS",
      "ManufacturerModelName": "Prisma_fit",
      "Modality": "MR",
      "NumberOfAverages": 1.0,
      "NumberOfPhaseEncodingSteps": 104,
      "PercentPhaseFieldOfView": 100.0,
      "PercentSampling": 100.0,
      "PerformedProcedureStepStartTime": "103731.095000",
      "PhotometricInterpretation": "MONOCHROME2",
      "PixelBandwidth": 2290.0,
      "PixelRepresentation": 0,
      "PixelSpacing": [2.0, 2.0],
      "ProtocolName": "func_task-shinobi_run-3",
      "RepetitionTime": 1490.0,
      "Rows": 832,
      "SAR": 0.0295658151051,
      "SamplesPerPixel": 1,
      "ScanOptions": "FS",
      "ScanningSequence": "EP",
      "SequenceName": "epfid2d1_104",
      "SequenceVariant": [
        "SK",
        "SS"
],
      "SeriesDescription": "func_task-shinobi_run-3",
      "SeriesNumber": 13,
      "SeriesTime": "111940.663000",
      "SliceLocation": -57.342549796198,
      "SliceThickness": 2.0,
      "SmallestImagePixelValue": 0,
      "SoftwareVersions": "syngo MR E11",
      "SpacingBetweenSlices": 1.999999987593,
      "SpecificCharacterSet": "ISO_IR 100",
      "StudyID": "1",
      "StudyTime": "103731.037000",
      "TransmitCoilName": "Body",
      "VariableFlipAngleFlag": "N",
      "WindowCenterWidthExplanation": "Algo1",
      "dBdt": 0.0},
    "slices": {}
  },
  "time": {
    "samples": {
      "AcquisitionNumber": [1, 2, 3, 4, 5, 6, 7, 8, 9, 10, 11, 12, 13, 14, 15, 16, 17, 18, 19, 20, 21, 22, 23, 24, 25, 26, 27, 28, 29, 30, 31, 32, 33, 34, 35, 36, 37, 38, 39, 40, 41, 42, 43, 44, 45, 46, 47, 48, 49, 50, 51, 52, 53, 54, 55, 56, 57, 58, 59, 60, 61, 62, 63, 64, 65, 66, 67, 68, 69, 70, 71, 72, 73, 74, 75, 76, 77, 78, 79, 80, 81, 82, 83, 84, 85, 86, 87, 88, 89, 90, 91, 92, 93, 94, 95, 96, 97, 98, 99, 100, 101, 102, 103, 104, 105, 106, 107, 108, 109, 110, 111, 112, 113, 114, 115, 116, 117, 118, 119, 120, 121, 122, 123, 124, 125, 126, 127, 128, 129, 130, 131, 132, 133, 134, 135, 136, 137, 138, 139, 140, 141, 142, 143, 144, 145, 146, 147, 148, 149, 150, 151, 152, 153, 154, 155, 156, 157, 158, 159, 160, 161, 162, 163, 164, 165, 166, 167, 168, 169, 170, 171, 172, 173, 174, 175, 176, 177, 178, 179, 180, 181, 182, 183, 184, 185, 186, 187, 188, 189, 190, 191, 192, 193, 194, 195, 196, 197, 198, 199, 200, 201, 202, 203, 204, 205, 206, 207, 208, 209, 210, 211, 212, 213, 214, 215, 216, 217, 218, 219, 220, 221, 222, 223, 224, 225, 226, 227, 228, 229, 230, 231, 232, 233, 234, 235, 236, 237, 238, 239, 240, 241, 242, 243, 244, 245, 246, 247, 248, 249, 250, 251, 252, 253, 254, 255, 256, 257, 258, 259, 260, 261, 262, 263, 264, 265, 266, 267, 268, 269, 270, 271, 272, 273, 274, 275, 276, 277, 278, 279, 280, 281, 282, 283, 284, 285, 286, 287, 288, 289, 290, 291, 292, 293, 294, 295, 296, 297, 298, 299, 300, 301, 302, 303, 304, 305, 306, 307, 308, 309, 310, 311, 312, 313, 314, 315, 316, 317, 318, 319, 320, 321, 322, 323, 324, 325, 326, 327, 328, 329, 330, 331, 332, 333, 334, 335, 336, 337, 338, 339, 340, 341, 342, 343, 344, 345, 346, 347, 348, 349, 350, 351, 352, 353, 354, 355, 356, 357, 358, 359, 360, 361, 362, 363, 364, 365, 366, 367, 368, 369, 370, 371, 372, 373, 374, 375, 376, 377, 378, 379, 380, 381, 382, 383, 384, 385, 386, 387, 388, 389, 390, 391, 392, 393, 394, 395, 396, 397, 398, 399, 400, 401, 402, 403, 404, 405, 406, 407, 408, 409, 410, 411, 412, 413, 414, 415, 416, 417, 418, 419, 420, 421, 422, 423, 424, 425, 426, 427, 428, 429, 430, 431, 432, 433, 434, 435, 436, 437, 438, 439, 440, 441, 442, 443, 444, 445, 446, 447, 448, 449, 450, 451, 452, 453, 454, 455, 456, 457, 458, 459, 460, 461, 462, 463, 464, 465, 466, 467, 468, 469, 470, 471, 472, 473, 474, 475, 476, 477, 478, 479, 480, 481, 482, 483, 484],
      "AcquisitionTime": ["111827.515000", "111829.005000", "111830.495000", "111831.985000", "111833.475000", "111834.965000", "111836.455000", "111837.945000", "111839.435000", "111840.925000", "111842.415000", "111843.905000", "111845.395000", "111846.885000", "111848.375000", "111849.865000", "111851.355000", "111852.845000", "111854.335000", "111855.825000", "111857.315000", "111858.805000", "111900.295000", "111901.785000", "111903.275000", "111904.765000", "111906.255000", "111907.745000", "111909.235000", "111910.725000", "111912.215000", "111913.705000", "111915.195000", "111916.685000", "111918.175000", "111919.665000", "111921.155000", "111922.645000", "111924.135000", "111925.625000", "111927.115000", "111928.605000", "111930.095000", "111931.585000", "111933.075000", "111934.565000", "111936.055000", "111937.545000", "111939.035000", "111940.525000", "111942.015000", "111943.505000", "111944.995000", "111946.485000", "111947.975000", "111949.465000", "111950.955000", "111952.445000", "111953.935000", "111955.425000", "111956.915000", "111958.405000", "111959.895000", "112001.385000", "112002.875000", "112004.365000", "112005.855000", "112007.345000", "112008.835000", "112010.325000", "112011.815000", "112013.305000", "112014.795000", "112016.285000", "112017.775000", "112019.265000", "112020.755000", "112022.245000", "112023.735000", "112025.225000", "112026.715000", "112028.205000", "112029.695000", "112031.185000", "112032.675000", "112034.165000", "112035.655000", "112037.145000", "112038.635000", "112040.125000", "112041.615000", "112043.105000", "112044.595000", "112046.085000", "112047.575000", "112049.065000", "112050.555000", "112052.045000", "112053.535000", "112055.025000", "112056.515000", "112058.005000", "112059.495000", "112100.985000", "112102.475000", "112103.965000", "112105.455000", "112106.945000", "112108.435000", "112109.925000", "112111.415000", "112112.905000", "112114.395000", "112115.885000", "112117.375000", "112118.865000", "112120.355000", "112121.845000", "112123.335000", "112124.825000", "112126.315000", "112127.805000", "112129.295000", "112130.785000", "112132.275000", "112133.765000", "112135.255000", "112136.745000", "112138.235000", "112139.725000", "112141.215000", "112142.705000", "112144.195000", "112145.685000", "112147.175000", "112148.665000", "112150.155000", "112151.645000", "112153.135000", "112154.625000", "112156.115000", "112157.605000", "112159.095000", "112200.585000", "112202.075000", "112203.565000", "112205.055000", "112206.545000", "112208.035000", "112209.525000", "112211.015000", "112212.505000", "112213.995000", "112215.485000", "112216.975000", "112218.465000", "112219.955000", "112221.445000", "112222.935000", "112224.425000", "112225.915000", "112227.405000", "112228.895000", "112230.385000", "112231.875000", "112233.365000", "112234.855000", "112236.345000", "112237.835000", "112239.325000", "112240.815000", "112242.305000", "112243.795000", "112245.285000", "112246.775000", "112248.265000", "112249.755000", "112251.245000", "112252.735000", "112254.225000", "112255.715000", "112257.205000", "112258.695000", "112300.185000", "112301.675000", "112303.165000", "112304.655000", "112306.145000", "112307.635000", "112309.125000", "112310.615000", "112312.105000", "112313.595000", "112315.085000", "112316.575000", "112318.065000", "112319.555000", "112321.045000", "112322.535000", "112324.025000", "112325.515000", "112327.005000", "112328.495000", "112329.985000", "112331.475000", "112332.965000", "112334.455000", "112335.945000", "112337.435000", "112338.925000", "112340.415000", "112341.905000", "112343.395000", "112344.885000", "112346.375000", "112347.865000", "112349.355000", "112350.845000", "112352.335000", "112353.825000", "112355.315000", "112356.805000", "112358.295000", "112359.785000", "112401.275000", "112402.765000", "112404.255000", "112405.745000", "112407.235000", "112408.725000", "112410.215000", "112411.705000", "112413.195000", "112414.685000", "112416.175000", "112417.665000", "112419.155000", "112420.645000", "112422.135000", "112423.625000", "112425.115000", "112426.605000", "112428.095000", "112429.585000", "112431.075000", "112432.565000", "112434.055000", "112435.545000", "112437.035000", "112438.525000", "112440.015000", "112441.505000", "112442.995000", "112444.485000", "112445.975000", "112447.465000", "112448.955000", "112450.445000", "112451.935000", "112453.425000", "112454.915000", "112456.405000", "112457.895000", "112459.385000", "112500.875000", "112502.365000", "112503.855000", "112505.345000", "112506.835000", "112508.325000", "112509.815000", "112511.305000", "112512.795000", "112514.285000", "112515.775000", "112517.265000", "112518.755000", "112520.245000", "112521.735000", "112523.225000", "112524.715000", "112526.205000", "112527.695000", "112529.185000", "112530.675000", "112532.165000", "112533.655000", "112535.145000", "112536.635000", "112538.125000", "112539.615000", "112541.105000", "112542.595000", "112544.085000", "112545.575000", "112547.065000", "112548.555000", "112550.045000", "112551.535000", "112553.025000", "112554.515000", "112556.005000", "112557.495000", "112558.985000", "112600.475000", "112601.965000", "112603.455000", "112604.945000", "112606.435000", "112607.925000", "112609.415000", "112610.905000", "112612.395000", "112613.885000", "112615.375000", "112616.865000", "112618.355000", "112619.845000", "112621.335000", "112622.825000", "112624.315000", "112625.805000", "112627.295000", "112628.785000", "112630.275000", "112631.765000", "112633.255000", "112634.745000", "112636.235000", "112637.725000", "112639.215000", "112640.705000", "112642.195000", "112643.685000", "112645.175000", "112646.665000", "112648.155000", "112649.645000", "112651.135000", "112652.625000", "112654.115000", "112655.605000", "112657.095000", "112658.585000", "112700.075000", "112701.565000", "112703.055000", "112704.545000", "112706.035000", "112707.525000", "112709.015000", "112710.505000", "112711.995000", "112713.485000", "112714.975000", "112716.465000", "112717.955000", "112719.445000", "112720.935000", "112722.425000", "112723.915000", "112725.405000", "112726.895000", "112728.385000", "112729.875000", "112731.365000", "112732.855000", "112734.345000", "112735.835000", "112737.325000", "112738.815000", "112740.305000", "112741.795000", "112743.285000", "112744.775000", "112746.265000", "112747.755000", "112749.245000", "112750.735000", "112752.225000", "112753.715000", "112755.205000", "112756.695000", "112758.185000", "112759.675000", "112801.165000", "112802.655000", "112804.145000", "112805.635000", "112807.125000", "112808.615000", "112810.105000", "112811.595000", "112813.085000", "112814.575000", "112816.065000", "112817.555000", "112819.045000", "112820.535000", "112822.025000", "112823.515000", "112825.005000", "112826.495000", "112827.985000", "112829.475000", "112830.965000", "112832.455000", "112833.945000", "112835.435000", "112836.925000", "112838.415000", "112839.905000", "112841.395000", "112842.885000", "112844.375000", "112845.865000", "112847.355000", "112848.845000", "112850.335000", "112851.825000", "112853.315000", "112854.805000", "112856.295000", "112857.785000", "112859.275000", "112900.765000", "112902.255000", "112903.745000", "112905.235000", "112906.725000", "112908.215000", "112909.705000", "112911.195000", "112912.685000", "112914.175000", "112915.665000", "112917.155000", "112918.645000", "112920.135000", "112921.625000", "112923.115000", "112924.605000", "112926.095000", "112927.585000", "112929.075000", "112930.565000", "112932.055000", "112933.545000", "112935.035000", "112936.525000", "112938.015000", "112939.505000", "112940.995000", "112942.485000", "112943.975000", "112945.465000", "112946.955000", "112948.445000", "112949.935000", "112951.425000", "112952.915000", "112954.405000", "112955.895000", "112957.385000", "112958.875000", "113000.365000", "113001.855000", "113003.345000", "113004.835000", "113006.325000", "113007.815000", "113009.305000", "113010.795000", "113012.285000", "113013.775000", "113015.265000", "113016.755000", "113018.245000", "113019.735000", "113021.225000", "113022.715000", "113024.205000", "113025.695000", "113027.185000"],
      "ContentTime": ["111940.666000", "111940.669000", "111940.672000", "111940.675000", "111940.678000", "111940.681000", "111940.684000", "111940.687000", "111940.690000", "111940.693000", "111940.696000", "111940.699000", "111940.702000", "111940.705000", "111940.708000", "111940.718000", "111940.721000", "111940.724000", "112000.636000", "112000.639000", "112000.642000", "112000.645000", "112000.654000", "112000.657000", "112000.660000", "112000.663000", "112000.666000", "112000.669000", "112000.673000", "112000.676000", "112000.679000", "112000.683000", "112000.686000", "112000.688000", "112000.692000", "112000.695000", "112000.698000", "112000.701000", "112020.636000", "112020.639000", "112020.642000", "112020.645000", "112020.648000", "112020.651000", "112020.654000", "112020.657000", "112020.660000", "112020.663000", "112020.666000", "112020.669000", "112020.672000", "112020.681000", "112020.684000", "112020.687000", "112020.690000", "112020.693000", "112020.696000", "112020.699000", "112020.702000", "112040.636000", "112040.639000", "112040.642000", "112040.645000", "112040.648000", "112040.651000", "112040.654000", "112040.657000", "112040.660000", "112040.663000", "112040.666000", "112040.669000", "112040.672000", "112040.675000", "112040.678000", "112040.681000", "112040.684000", "112040.687000", "112040.690000", "112040.693000", "112100.636000", "112100.639000", "112100.642000", "112100.645000", "112100.648000", "112100.651000", "112100.654000", "112100.657000", "112100.660000", "112100.663000", "112100.666000", "112100.669000", "112100.672000", "112100.675000", "112100.678000", "112100.681000", "112100.684000", "112100.687000", "112100.690000", "112100.693000", "112140.636000", "112140.639000", "112140.642000", "112140.645000", "112140.648000", "112140.651000", "112140.654000", "112140.657000", "112140.660000", "112140.663000", "112140.666000", "112140.669000", "112140.672000", "112140.675000", "112140.678000", "112140.682000", "112140.685000", "112140.688000", "112140.691000", "112140.694000", "112140.697000", "112140.700000", "112140.703000", "112140.706000", "112140.709000", "112140.712000", "112140.715000", "112140.718000", "112140.721000", "112220.636000", "112220.639000", "112220.642000", "112220.645000", "112220.648000", "112220.651000", "112220.654000", "112220.657000", "112220.660000", "112220.663000", "112220.666000", "112220.669000", "112220.672000", "112220.675000", "112220.678000", "112220.681000", "112220.684000", "112220.687000", "112220.690000", "112220.693000", "112220.696000", "112220.699000", "112220.702000", "112220.705000", "112220.708000", "112220.711000", "112220.714000", "112300.636000", "112300.639000", "112300.642000", "112300.645000", "112300.648000", "112300.651000", "112300.654000", "112300.657000", "112300.660000", "112300.663000", "112300.666000", "112300.669000", "112300.672000", "112300.675000", "112300.678000", "112300.681000", "112300.684000", "112300.687000", "112300.690000", "112300.693000", "112300.696000", "112300.699000", "112300.702000", "112300.705000", "112300.708000", "112300.711000", "112300.714000", "112340.636000", "112340.639000", "112340.642000", "112340.645000", "112340.648000", "112340.651000", "112340.654000", "112340.657000", "112340.660000", "112340.663000", "112340.666000", "112340.669000", "112340.672000", "112340.675000", "112340.678000", "112340.681000", "112340.684000", "112340.687000", "112340.690000", "112340.693000", "112340.696000", "112340.699000", "112340.702000", "112340.705000", "112340.708000", "112340.711000", "112340.714000", "112420.636000", "112420.639000", "112420.642000", "112420.645000", "112420.648000", "112420.651000", "112420.654000", "112420.657000", "112420.660000", "112420.663000", "112420.666000", "112420.669000", "112420.672000", "112420.675000", "112420.678000", "112420.681000", "112420.684000", "112420.687000", "112420.690000", "112420.693000", "112420.696000", "112420.699000", "112420.702000", "112420.709000", "112420.712000", "112420.723000", "112420.726000", "112500.636000", "112500.639000", "112500.642000", "112500.645000", "112500.648000", "112500.651000", "112500.654000", "112500.657000", "112500.663000", "112500.666000", "112500.669000", "112500.672000", "112500.675000", "112500.677000", "112500.681000", "112500.683000", "112500.686000", "112500.689000", "112500.692000", "112500.695000", "112500.698000", "112500.701000", "112500.704000", "112500.707000", "112500.710000", "112500.713000", "112500.716000", "112540.636000", "112540.639000", "112540.642000", "112540.645000", "112540.648000", "112540.651000", "112540.654000", "112540.657000", "112540.660000", "112540.663000", "112540.666000", "112540.669000", "112540.672000", "112540.675000", "112540.678000", "112540.681000", "112540.684000", "112540.687000", "112540.690000", "112540.693000", "112540.697000", "112540.700000", "112540.703000", "112540.706000", "112540.709000", "112540.713000", "112620.636000", "112620.639000", "112620.642000", "112620.645000", "112620.648000", "112620.651000", "112620.654000", "112620.657000", "112620.660000", "112620.663000", "112620.666000", "112620.669000", "112620.672000", "112620.675000", "112620.678000", "112620.681000", "112620.684000", "112620.687000", "112620.690000", "112620.693000", "112620.696000", "112620.699000", "112620.702000", "112620.705000", "112620.708000", "112620.711000", "112620.714000", "112700.636000", "112700.639000", "112700.642000", "112700.645000", "112700.648000", "112700.651000", "112700.654000", "112700.657000", "112700.660000", "112700.663000", "112700.666000", "112700.669000", "112700.672000", "112700.675000", "112700.678000", "112700.681000", "112700.684000", "112700.687000", "112700.690000", "112700.693000", "112700.696000", "112700.699000", "112700.702000", "112700.705000", "112700.708000", "112700.711000", "112700.714000", "112740.636000", "112740.639000", "112740.642000", "112740.645000", "112740.648000", "112740.651000", "112740.654000", "112740.657000", "112740.660000", "112740.663000", "112740.666000", "112740.669000", "112740.672000", "112740.675000", "112740.678000", "112740.681000", "112740.684000", "112740.687000", "112740.690000", "112740.693000", "112740.696000", "112740.699000", "112740.702000", "112740.705000", "112740.708000", "112740.711000", "112740.714000", "112820.636000", "112820.639000", "112820.642000", "112820.645000", "112820.648000", "112820.651000", "112820.654000", "112820.657000", "112820.660000", "112820.663000", "112820.666000", "112820.669000", "112820.672000", "112820.675000", "112820.678000", "112820.681000", "112820.684000", "112820.687000", "112820.690000", "112820.693000", "112820.696000", "112820.699000", "112820.702000", "112820.705000", "112820.708000", "112820.711000", "112820.714000", "112900.636000", "112900.639000", "112900.642000", "112900.645000", "112900.648000", "112900.651000", "112900.654000", "112900.657000", "112900.660000", "112900.663000", "112900.666000", "112900.669000", "112900.672000", "112900.675000", "112900.678000", "112900.681000", "112900.684000", "112900.687000", "112900.690000", "112900.693000", "112900.696000", "112900.711000", "112900.714000", "112900.717000", "112900.720000", "112900.723000", "112900.725000", "112940.636000", "112940.639000", "112940.648000", "112940.651000", "112940.654000", "112940.657000", "112940.660000", "112940.663000", "112940.666000", "112940.669000", "112940.672000", "112940.675000", "112940.678000", "112940.681000", "112940.684000", "112940.687000", "112940.690000", "112940.693000", "112940.696000", "112940.699000", "112940.702000", "112940.705000", "112940.708000", "112940.711000", "112940.714000", "112940.717000", "112940.720000", "113020.636000", "113020.639000", "113020.642000", "113020.645000", "113020.648000", "113020.651000", "113020.654000", "113020.657000", "113020.660000", "113020.663000", "113020.666000", "113020.669000", "113020.672000", "113020.675000", "113020.678000", "113020.692000", "113020.695000", "113020.698000", "113020.701000", "113020.704000", "113020.707000", "113020.710000", "113020.713000", "113020.716000", "113020.719000", "113020.721000", "113030.075000", "113030.078000", "113030.081000", "113030.085000", "113030.088000", "113030.090000", "113030.093000"],
