{
  "AcquisitionMatrixPE": 104,
  "AcquisitionNumber": 1,
  "AcquisitionTime": "10:59:10.575000",
  "BandwidthPerPixelPhaseEncode": 17.17,
  "BaseResolution": 104,
  "BodyPartExamined": "BRAIN",
  "CoilString": "HC1-7;NC1_2",
  "ConsistencyInfo": "N4_VE11C_LATEST_20160120",
  "ConversionSoftware": "dcm2niix",
  "ConversionSoftwareVersion": "v1.0.20200427",
  "DerivedVendorReportedEchoSpacing": 0.000560011,
  "DeviceSerialNumber": "167006",
  "DwellTime": 2.1e-06,
  "EchoTime": 0.037,
  "EchoTrainLength": 104,
  "EffectiveEchoSpacing": 0.000560011,
  "FlipAngle": 52,
  "ImageComments": "Unaliased_MB4_PE3_LB",
  "ImageOrientationPatientDICOM": [0.999327, 0.0249512, 0.0268854, -0.00802331, 0.863929, -0.50355],
  "ImageType": [
    "ORIGINAL",
    "PRIMARY",
    "M",
    "MB",
    "ND",
    "MOSAIC"
],
  "ImagingFrequency": 123.259,
  "InPlanePhaseEncodingDirectionDICOM": "COL",
  "InstitutionAddress": "Chemin_Queen-Mary_4565_Montreal_District_CA_H3W_1W5",
  "InstitutionName": "IUGM",
  "InstitutionalDepartmentName": "Department",
  "MRAcquisitionType": "2D",
  "MagneticFieldStrength": 3,
  "Manufacturer": "Siemens",
  "ManufacturersModelName": "Prisma_fit",
  "Modality": "MR",
  "MultibandAccelerationFactor": 4,
  "PartialFourier": 1,
  "PatientPosition": "HFS",
  "PercentPhaseFOV": 100,
  "PercentSampling": 100,
  "PhaseEncodingDirection": "j",
  "PhaseEncodingSteps": 104,
  "PhaseResolution": 1,
  "PixelBandwidth": 2290,
  "ProcedureStepDescription": "games_shinobi",
  "ProtocolName": "func_task-shinobi_run-2",
  "PulseSequenceDetails": "%CustomerSeq%_cmrr_mbep2d_bold",
  "ReceiveCoilActiveElements": "HC1-7;NC1,2",
  "ReceiveCoilName": "HeadNeck_64",
  "ReconMatrixPE": 104,
  "RepetitionTime": 1.49,
  "SAR": 0.0295658,
  "ScanOptions": "FS",
  "ScanningSequence": "EP",
  "SequenceName": "epfid2d1_104",
  "SequenceVariant": "SK_SS",
  "SeriesDescription": "func_task-shinobi_run-2",
  "SeriesNumber": 11,
  "ShimSetting": [624, -7205, -8892, 379, -23, -162, 33, -16],
  "SliceThickness": 2,
  "SliceTiming": [0, 0.7825, 0.0975, 0.88, 0.195, 0.9775, 0.2925, 1.0775, 0.39, 1.175, 0.49, 1.2725, 0.5875, 1.37, 0.685, 0, 0.7825, 0.0975, 0.88, 0.195, 0.9775, 0.2925, 1.0775, 0.39, 1.175, 0.49, 1.2725, 0.5875, 1.37, 0.685, 0, 0.7825, 0.0975, 0.88, 0.195, 0.9775, 0.2925, 1.0775, 0.39, 1.175, 0.49, 1.2725, 0.5875, 1.37, 0.685, 0, 0.7825, 0.0975, 0.88, 0.195, 0.9775, 0.2925, 1.0775, 0.39, 1.175, 0.49, 1.2725, 0.5875, 1.37, 0.685],
  "SoftwareVersions": "syngo_MR_E11",
  "SpacingBetweenSlices": 2,
  "StationName": "MRC35049",
  "TaskName": "shinobi",
  "TotalReadoutTime": 0.0576811,
  "TxRefAmp": 235.065,
  "WipMemBlock": "3ba01081-b7b6-47f1-a3e7-e217618cd171||Sequence: R016 ve11c/master r/e634e98; Dec 19 2017 11:00:25 by eja",
  "dcmmeta_affine": [
    [-1.9986541271209717, -0.01604662649333477, 0.0715823844075203, 106.60261535644531],
    [-0.04990231618285179, 1.727858066558838, -1.0059902667999268, -48.512081146240234],
    [0.053770724684000015, 1.0070993900299072, 1.7270957231521606, -99.07884216308594],
    [0.0, 0.0, 0.0, 1.0]
],
  "dcmmeta_reorient_transform": [
    [0.0, -1.0, 0.0, 103.0],
    [1.0, 0.0, 0.0, 0.0],
    [0.0, 0.0, 1.0, 0.0],
    [0.0, 0.0, 0.0, 1.0]
],
  "dcmmeta_shape": [104, 104, 60, 457],
  "dcmmeta_slice_dim": 2,
  "dcmmeta_version": 0.6,
  "global": {
    "const": {
      "AcquisitionMatrix": [104, 0, 0, 104],
      "AngioFlag": "N",
      "BitsAllocated": 16,
      "BitsStored": 16,
      "BodyPartExamined": "BRAIN",
      "Columns": 832,
      "EchoNumbers": 1,
      "EchoTime": 37.0,
      "EchoTrainLength": 104,
      "FlipAngle": 52.0,
      "HighBit": 15,
      "ImageOrientationPatient": [0.99932708206041, 0.0249511585023, 0.02688536311862, -0.0080233131258, 0.86392902046669, -0.5035496738575],
      "ImagePositionPatient": [-826.61895912413, -776.56206851524, 351.66400646148],
      "ImageType": [
        "ORIGINAL",
        "PRIMARY",
        "M",
        "MB",
        "ND",
        "MOSAIC"
],
      "ImagedNucleus": "1H",
      "ImagingFrequency": 123.259076,
      "InPlanePhaseEncodingDirection": "COL",
      "MRAcquisitionType": "2D",
      "MagneticFieldStrength": 3.0,
      "Manufacturer": "SIEMENS",
      "ManufacturerModelName": "Prisma_fit",
      "Modality": "MR",
      "NumberOfAverages": 1.0,
      "NumberOfPhaseEncodingSteps": 104,
      "PercentPhaseFieldOfView": 100.0,
      "PercentSampling": 100.0,
      "PerformedProcedureStepStartTime": "103731.095000",
      "PhotometricInterpretation": "MONOCHROME2",
      "PixelBandwidth": 2290.0,
      "PixelRepresentation": 0,
      "PixelSpacing": [2.0, 2.0],
      "ProtocolName": "func_task-shinobi_run-2",
      "RepetitionTime": 1490.0,
      "Rows": 832,
      "SAR": 0.0295658151051,
      "SamplesPerPixel": 1,
      "ScanOptions": "FS",
      "ScanningSequence": "EP",
      "SequenceName": "epfid2d1_104",
      "SequenceVariant": [
        "SK",
        "SS"
],
      "SeriesDescription": "func_task-shinobi_run-2",
      "SeriesNumber": 11,
      "SeriesTime": "110010.933000",
      "SliceLocation": -57.342549796198,
      "SliceThickness": 2.0,
      "SmallestImagePixelValue": 0,
      "SoftwareVersions": "syngo MR E11",
      "SpacingBetweenSlices": 1.999999987593,
      "SpecificCharacterSet": "ISO_IR 100",
      "StudyID": "1",
      "StudyTime": "103731.037000",
      "TransmitCoilName": "Body",
      "VariableFlipAngleFlag": "N",
      "WindowCenterWidthExplanation": "Algo1",
      "dBdt": 0.0},
    "slices": {}
  },
  "time": {
    "samples": {
      "AcquisitionNumber": [1, 2, 3, 4, 5, 6, 7, 8, 9, 10, 11, 12, 13, 14, 15, 16, 17, 18, 19, 20, 21, 22, 23, 24, 25, 26, 27, 28, 29, 30, 31, 32, 33, 34, 35, 36, 37, 38, 39, 40, 41, 42, 43, 44, 45, 46, 47, 48, 49, 50, 51, 52, 53, 54, 55, 56, 57, 58, 59, 60, 61, 62, 63, 64, 65, 66, 67, 68, 69, 70, 71, 72, 73, 74, 75, 76, 77, 78, 79, 80, 81, 82, 83, 84, 85, 86, 87, 88, 89, 90, 91, 92, 93, 94, 95, 96, 97, 98, 99, 100, 101, 102, 103, 104, 105, 106, 107, 108, 109, 110, 111, 112, 113, 114, 115, 116, 117, 118, 119, 120, 121, 122, 123, 124, 125, 126, 127, 128, 129, 130, 131, 132, 133, 134, 135, 136, 137, 138, 139, 140, 141, 142, 143, 144, 145, 146, 147, 148, 149, 150, 151, 152, 153, 154, 155, 156, 157, 158, 159, 160, 161, 162, 163, 164, 165, 166, 167, 168, 169, 170, 171, 172, 173, 174, 175, 176, 177, 178, 179, 180, 181, 182, 183, 184, 185, 186, 187, 188, 189, 190, 191, 192, 193, 194, 195, 196, 197, 198, 199, 200, 201, 202, 203, 204, 205, 206, 207, 208, 209, 210, 211, 212, 213, 214, 215, 216, 217, 218, 219, 220, 221, 222, 223, 224, 225, 226, 227, 228, 229, 230, 231, 232, 233, 234, 235, 236, 237, 238, 239, 240, 241, 242, 243, 244, 245, 246, 247, 248, 249, 250, 251, 252, 253, 254, 255, 256, 257, 258, 259, 260, 261, 262, 263, 264, 265, 266, 267, 268, 269, 270, 271, 272, 273, 274, 275, 276, 277, 278, 279, 280, 281, 282, 283, 284, 285, 286, 287, 288, 289, 290, 291, 292, 293, 294, 295, 296, 297, 298, 299, 300, 301, 302, 303, 304, 305, 306, 307, 308, 309, 310, 311, 312, 313, 314, 315, 316, 317, 318, 319, 320, 321, 322, 323, 324, 325, 326, 327, 328, 329, 330, 331, 332, 333, 334, 335, 336, 337, 338, 339, 340, 341, 342, 343, 344, 345, 346, 347, 348, 349, 350, 351, 352, 353, 354, 355, 356, 357, 358, 359, 360, 361, 362, 363, 364, 365, 366, 367, 368, 369, 370, 371, 372, 373, 374, 375, 376, 377, 378, 379, 380, 381, 382, 383, 384, 385, 386, 387, 388, 389, 390, 391, 392, 393, 394, 395, 396, 397, 398, 399, 400, 401, 402, 403, 404, 405, 406, 407, 408, 409, 410, 411, 412, 413, 414, 415, 416, 417, 418, 419, 420, 421, 422, 423, 424, 425, 426, 427, 428, 429, 430, 431, 432, 433, 434, 435, 436, 437, 438, 439, 440, 441, 442, 443, 444, 445, 446, 447, 448, 449, 450, 451, 452, 453, 454, 455, 456, 457],
      "AcquisitionTime": ["105910.575000", "105912.065000", "105913.555000", "105915.045000", "105916.535000", "105918.025000", "105919.515000", "105921.005000", "105922.495000", "105923.985000", "105925.475000", "105926.965000", "105928.455000", "105929.945000", "105931.435000", "105932.925000", "105934.415000", "105935.905000", "105937.395000", "105938.885000", "105940.375000", "105941.865000", "105943.355000", "105944.845000", "105946.335000", "105947.825000", "105949.315000", "105950.805000", "105952.295000", "105953.785000", "105955.275000", "105956.765000", "105958.255000", "105959.745000", "110001.235000", "110002.725000", "110004.215000", "110005.705000", "110007.195000", "110008.685000", "110010.175000", "110011.665000", "110013.155000", "110014.645000", "110016.135000", "110017.625000", "110019.115000", "110020.605000", "110022.095000", "110023.585000", "110025.075000", "110026.565000", "110028.055000", "110029.545000", "110031.035000", "110032.525000", "110034.015000", "110035.505000", "110036.995000", "110038.485000", "110039.975000", "110041.465000", "110042.955000", "110044.445000", "110045.935000", "110047.425000", "110048.915000", "110050.405000", "110051.895000", "110053.385000", "110054.875000", "110056.365000", "110057.855000", "110059.345000", "110100.835000", "110102.325000", "110103.815000", "110105.305000", "110106.795000", "110108.285000", "110109.775000", "110111.265000", "110112.755000", "110114.245000", "110115.735000", "110117.225000", "110118.715000", "110120.205000", "110121.695000", "110123.185000", "110124.675000", "110126.165000", "110127.655000", "110129.145000", "110130.635000", "110132.125000", "110133.615000", "110135.105000", "110136.595000", "110138.085000", "110139.575000", "110141.065000", "110142.555000", "110144.045000", "110145.535000", "110147.025000", "110148.515000", "110150.005000", "110151.495000", "110152.985000", "110154.475000", "110155.965000", "110157.455000", "110158.945000", "110200.435000", "110201.925000", "110203.415000", "110204.905000", "110206.395000", "110207.885000", "110209.375000", "110210.865000", "110212.355000", "110213.845000", "110215.335000", "110216.825000", "110218.315000", "110219.805000", "110221.295000", "110222.785000", "110224.275000", "110225.765000", "110227.255000", "110228.745000", "110230.235000", "110231.725000", "110233.215000", "110234.705000", "110236.195000", "110237.685000", "110239.175000", "110240.665000", "110242.155000", "110243.645000", "110245.135000", "110246.625000", "110248.115000", "110249.605000", "110251.095000", "110252.585000", "110254.075000", "110255.565000", "110257.055000", "110258.545000", "110300.035000", "110301.525000", "110303.015000", "110304.505000", "110305.995000", "110307.485000", "110308.975000", "110310.465000", "110311.955000", "110313.445000", "110314.935000", "110316.425000", "110317.915000", "110319.405000", "110320.895000", "110322.385000", "110323.875000", "110325.365000", "110326.855000", "110328.345000", "110329.835000", "110331.325000", "110332.815000", "110334.305000", "110335.795000", "110337.285000", "110338.775000", "110340.265000", "110341.755000", "110343.245000", "110344.735000", "110346.225000", "110347.715000", "110349.205000", "110350.695000", "110352.185000", "110353.675000", "110355.165000", "110356.655000", "110358.145000", "110359.635000", "110401.125000", "110402.615000", "110404.105000", "110405.595000", "110407.085000", "110408.575000", "110410.065000", "110411.555000", "110413.045000", "110414.535000", "110416.025000", "110417.515000", "110419.005000", "110420.495000", "110421.985000", "110423.475000", "110424.965000", "110426.455000", "110427.945000", "110429.435000", "110430.925000", "110432.415000", "110433.905000", "110435.395000", "110436.885000", "110438.375000", "110439.865000", "110441.355000", "110442.845000", "110444.335000", "110445.825000", "110447.315000", "110448.805000", "110450.295000", "110451.785000", "110453.275000", "110454.765000", "110456.255000", "110457.745000", "110459.235000", "110500.725000", "110502.215000", "110503.705000", "110505.195000", "110506.685000", "110508.175000", "110509.665000", "110511.155000", "110512.645000", "110514.135000", "110515.625000", "110517.115000", "110518.605000", "110520.095000", "110521.585000", "110523.075000", "110524.565000", "110526.055000", "110527.545000", "110529.035000", "110530.525000", "110532.015000", "110533.505000", "110534.995000", "110536.485000", "110537.975000", "110539.465000", "110540.955000", "110542.445000", "110543.935000", "110545.425000", "110546.915000", "110548.405000", "110549.895000", "110551.385000", "110552.875000", "110554.365000", "110555.855000", "110557.345000", "110558.835000", "110600.325000", "110601.815000", "110603.305000", "110604.795000", "110606.285000", "110607.775000", "110609.265000", "110610.755000", "110612.245000", "110613.735000", "110615.225000", "110616.715000", "110618.205000", "110619.695000", "110621.185000", "110622.675000", "110624.165000", "110625.655000", "110627.145000", "110628.635000", "110630.125000", "110631.615000", "110633.105000", "110634.595000", "110636.085000", "110637.575000", "110639.065000", "110640.555000", "110642.045000", "110643.535000", "110645.025000", "110646.515000", "110648.005000", "110649.495000", "110650.985000", "110652.475000", "110653.965000", "110655.455000", "110656.945000", "110658.435000", "110659.925000", "110701.415000", "110702.905000", "110704.395000", "110705.885000", "110707.375000", "110708.865000", "110710.355000", "110711.845000", "110713.335000", "110714.825000", "110716.315000", "110717.805000", "110719.295000", "110720.785000", "110722.275000", "110723.765000", "110725.255000", "110726.745000", "110728.235000", "110729.725000", "110731.215000", "110732.705000", "110734.195000", "110735.685000", "110737.175000", "110738.665000", "110740.155000", "110741.645000", "110743.135000", "110744.625000", "110746.115000", "110747.605000", "110749.095000", "110750.585000", "110752.075000", "110753.565000", "110755.055000", "110756.545000", "110758.035000", "110759.525000", "110801.015000", "110802.505000", "110803.995000", "110805.485000", "110806.975000", "110808.465000", "110809.955000", "110811.445000", "110812.935000", "110814.425000", "110815.915000", "110817.405000", "110818.895000", "110820.385000", "110821.875000", "110823.365000", "110824.855000", "110826.345000", "110827.835000", "110829.325000", "110830.815000", "110832.305000", "110833.795000", "110835.285000", "110836.775000", "110838.265000", "110839.755000", "110841.245000", "110842.735000", "110844.225000", "110845.715000", "110847.205000", "110848.695000", "110850.185000", "110851.675000", "110853.165000", "110854.655000", "110856.145000", "110857.635000", "110859.125000", "110900.615000", "110902.105000", "110903.595000", "110905.085000", "110906.575000", "110908.065000", "110909.555000", "110911.045000", "110912.535000", "110914.025000", "110915.515000", "110917.005000", "110918.495000", "110919.985000", "110921.475000", "110922.965000", "110924.455000", "110925.945000", "110927.435000", "110928.925000", "110930.415000", "110931.905000", "110933.395000", "110934.885000", "110936.375000", "110937.865000", "110939.355000", "110940.845000", "110942.335000", "110943.825000", "110945.315000", "110946.805000", "110948.295000", "110949.785000", "110951.275000", "110952.765000", "110954.255000", "110955.745000", "110957.235000", "110958.725000", "111000.215000", "111001.705000", "111003.195000", "111004.685000", "111006.175000", "111007.665000", "111009.155000", "111010.645000", "111012.135000", "111013.625000", "111015.115000", "111016.605000", "111018.095000", "111019.585000", "111021.075000", "111022.565000", "111024.055000", "111025.545000", "111027.035000", "111028.525000", "111030.015000"],
      "ContentTime": ["110010.936000", "110010.939000", "110010.942000", "110010.945000", "110010.948000", "110010.957000", "110010.960000", "110030.905000", "110030.908000", "110030.911000", "110030.914000", "110030.917000", "110030.920000", "110030.923000", "110030.926000", "110030.929000", "110030.932000", "110030.935000", "110030.938000", "110030.941000", "110030.944000", "110030.947000", "110030.950000", "110030.953000", "110030.956000", "110030.958000", "110030.961000", "110050.905000", "110050.908000", "110050.911000", "110050.914000", "110050.917000", "110050.920000", "110050.923000", "110050.926000", "110050.929000", "110050.932000", "110050.934000", "110050.937000", "110050.941000", "110050.944000", "110050.947000", "110050.950000", "110050.953000", "110050.956000", "110050.959000", "110050.962000", "110110.905000", "110110.908000", "110110.911000", "110110.914000", "110110.917000", "110110.920000", "110110.923000", "110110.926000", "110110.929000", "110110.932000", "110110.935000", "110110.946000", "110110.949000", "110110.952000", "110110.955000", "110110.958000", "110110.961000", "110110.964000", "110110.967000", "110110.970000", "110130.905000", "110130.908000", "110130.911000", "110130.914000", "110130.917000", "110130.920000", "110130.923000", "110130.926000", "110130.929000", "110130.932000", "110130.937000", "110130.940000", "110130.943000", "110130.946000", "110130.949000", "110130.951000", "110130.954000", "110130.957000", "110130.960000", "110130.963000", "110130.966000", "110210.904000", "110210.912000", "110210.915000", "110210.918000", "110210.921000", "110210.924000", "110210.927000", "110210.930000", "110210.933000", "110210.936000", "110210.939000", "110210.942000", "110210.945000", "110210.949000", "110210.952000", "110210.955000", "110210.958000", "110210.961000", "110210.964000", "110210.967000", "110210.970000", "110210.973000", "110210.976000", "110210.979000", "110210.982000", "110210.985000", "110210.988000", "110210.991000", "110210.994000", "110210.997000", "110211.001000", "110211.004000", "110250.905000", "110250.908000", "110250.911000", "110250.914000", "110250.917000", "110250.920000", "110250.923000", "110250.926000", "110250.929000", "110250.932000", "110250.935000", "110250.938000", "110250.941000", "110250.944000", "110250.946000", "110250.949000", "110250.952000", "110250.955000", "110250.958000", "110250.961000", "110250.964000", "110250.967000", "110250.970000", "110250.973000", "110250.976000", "110250.979000", "110250.982000", "110330.905000", "110330.908000", "110330.911000", "110330.914000", "110330.917000", "110330.920000", "110330.923000", "110330.926000", "110330.929000", "110330.949000", "110330.952000", "110330.955000", "110330.958000", "110330.961000", "110330.964000", "110330.967000", "110330.970000", "110330.973000", "110330.976000", "110330.979000", "110330.982000", "110330.985000", "110330.988000", "110330.991000", "110330.994000", "110330.996000", "110331.001000", "110410.905000", "110410.908000", "110410.911000", "110410.914000", "110410.917000", "110410.920000", "110410.923000", "110410.926000", "110410.929000", "110410.938000", "110410.940000", "110410.943000", "110410.946000", "110410.950000", "110410.952000", "110410.955000", "110410.958000", "110410.961000", "110410.964000", "110410.967000", "110410.970000", "110410.973000", "110410.976000", "110410.979000", "110410.982000", "110410.985000", "110410.988000", "110450.904000", "110450.907000", "110450.910000", "110450.913000", "110450.916000", "110450.919000", "110450.922000", "110450.925000", "110450.928000", "110450.931000", "110450.934000", "110450.937000", "110450.940000", "110450.943000", "110450.947000", "110450.950000", "110450.953000", "110450.956000", "110450.959000", "110450.962000", "110450.966000", "110450.969000", "110450.972000", "110450.975000", "110450.978000", "110450.981000", "110530.905000", "110530.908000", "110530.911000", "110530.914000", "110530.917000", "110530.920000", "110530.923000", "110530.926000", "110530.929000", "110530.932000", "110530.935000", "110530.938000", "110530.941000", "110530.944000", "110530.947000", "110530.950000", "110530.953000", "110530.956000", "110530.969000", "110530.972000", "110530.975000", "110530.978000", "110530.981000", "110530.984000", "110530.987000", "110530.989000", "110530.992000", "110610.905000", "110610.908000", "110610.911000", "110610.914000", "110610.917000", "110610.920000", "110610.923000", "110610.926000", "110610.929000", "110610.932000", "110610.935000", "110610.938000", "110610.941000", "110610.944000", "110610.947000", "110610.950000", "110610.953000", "110610.956000", "110610.959000", "110610.962000", "110610.965000", "110610.968000", "110610.971000", "110610.974000", "110610.977000", "110610.980000", "110610.983000", "110650.904000", "110650.907000", "110650.910000", "110650.913000", "110650.916000", "110650.919000", "110650.922000", "110650.925000", "110650.928000", "110650.931000", "110650.934000", "110650.937000", "110650.940000", "110650.943000", "110650.946000", "110650.949000", "110650.952000", "110650.955000", "110650.958000", "110650.961000", "110650.964000", "110650.967000", "110650.970000", "110650.973000", "110650.976000", "110650.979000", "110650.982000", "110730.905000", "110730.908000", "110730.911000", "110730.914000", "110730.917000", "110730.920000", "110730.923000", "110730.926000", "110730.929000", "110730.932000", "110730.935000", "110730.938000", "110730.941000", "110730.944000", "110730.947000", "110730.950000", "110730.953000", "110730.956000", "110730.959000", "110730.962000", "110730.965000", "110730.968000", "110730.971000", "110730.974000", "110730.977000", "110730.980000", "110730.983000", "110810.905000", "110810.908000", "110810.911000", "110810.914000", "110810.917000", "110810.920000", "110810.923000", "110810.926000", "110810.929000", "110810.932000", "110810.935000", "110810.938000", "110810.941000", "110810.944000", "110810.947000", "110810.950000", "110810.953000", "110810.956000", "110810.959000", "110810.962000", "110810.965000", "110810.968000", "110810.971000", "110810.974000", "110810.977000", "110810.980000", "110810.983000", "110850.905000", "110850.908000", "110850.911000", "110850.914000", "110850.917000", "110850.920000", "110850.923000", "110850.926000", "110850.929000", "110850.932000", "110850.935000", "110850.938000", "110850.941000", "110850.944000", "110850.947000", "110850.950000", "110850.953000", "110850.956000", "110850.959000", "110850.962000", "110850.965000", "110850.968000", "110850.971000", "110850.974000", "110850.977000", "110850.980000", "110850.983000", "110930.904000", "110930.907000", "110930.910000", "110930.913000", "110930.916000", "110930.919000", "110930.922000", "110930.925000", "110930.928000", "110930.931000", "110930.934000", "110930.937000", "110930.940000", "110930.944000", "110930.951000", "110930.954000", "110930.957000", "110930.960000", "110930.963000", "110930.966000", "110930.969000", "110930.972000", "110930.975000", "110930.978000", "110930.981000", "110930.984000", "110950.905000", "110950.908000", "110950.911000", "110950.914000", "110950.917000", "110950.920000", "110950.923000", "110950.926000", "110950.929000", "110950.932000", "110950.935000", "110950.938000", "110950.941000", "110950.944000", "111030.905000", "111030.908000", "111030.911000", "111030.914000", "111030.917000", "111030.920000", "111030.923000", "111030.926000", "111030.929000", "111030.932000", "111030.935000", "111030.938000", "111030.941000", "111030.944000", "111030.947000", "111030.950000", "111030.953000", "111030.956000", "111030.959000", "111030.962000", "111030.965000", "111030.968000", "111030.971000", "111030.974000", "111030.977000", "111030.980000", "111030.983000", "111032.685000"],
