{
  "AcquisitionMatrixPE": 104,
  "AcquisitionNumber": 1,
  "AcquisitionTime": "11:18:57.472500",
  "BandwidthPerPixelPhaseEncode": 17.17,
  "BaseResolution": 104,
  "BodyPartExamined": "BRAIN",
  "CoilString": "HC1-7;NC1_2",
  "ConsistencyInfo": "N4_VE11C_LATEST_20160120",
  "ConversionSoftware": "dcm2niix",
  "ConversionSoftwareVersion": "v1.0.20190902",
  "DerivedVendorReportedEchoSpacing": 0.000560011,
  "DeviceSerialNumber": "167006",
  "DwellTime": 2.1e-06,
  "EchoTime": 0.037,
  "EchoTrainLength": 104,
  "EffectiveEchoSpacing": 0.000560011,
  "FlipAngle": 52,
  "ImageComments": "Unaliased_MB4_PE3_LB",
  "ImageOrientationPatientDICOM": [0.999094, 0.0375731, 0.0199695, -0.0230216, 0.872018, -0.488931],
  "ImageType": [
    "ORIGINAL",
    "PRIMARY",
    "M",
    "MB",
    "ND",
    "MOSAIC"
],
  "ImagingFrequency": 123.259,
  "InPlanePhaseEncodingDirectionDICOM": "COL",
  "InstitutionAddress": "Chemin_Queen-Mary_4565_Montreal_District_CA_H3W_1W5",
  "InstitutionName": "IUGM",
  "InstitutionalDepartmentName": "Department",
  "MRAcquisitionType": "2D",
  "MagneticFieldStrength": 3,
  "Manufacturer": "Siemens",
  "ManufacturersModelName": "Prisma_fit",
  "Modality": "MR",
  "MultibandAccelerationFactor": 4,
  "PartialFourier": 1,
  "PatientPosition": "HFS",
  "PercentPhaseFOV": 100,
  "PhaseEncodingDirection": "j",
  "PhaseEncodingSteps": 104,
  "PhaseResolution": 1,
  "PixelBandwidth": 2290,
  "ProcedureStepDescription": "games_shinobi",
  "ProtocolName": "func_task-shinobi_run-2",
  "PulseSequenceDetails": "%CustomerSeq%_cmrr_mbep2d_bold",
  "ReceiveCoilActiveElements": "HC1-7;NC1,2",
  "ReceiveCoilName": "HeadNeck_64",
  "ReconMatrixPE": 104,
  "RepetitionTime": 1.49,
  "SAR": 0.0348532,
  "ScanOptions": "FS",
  "ScanningSequence": "EP",
  "SequenceName": "epfid2d1_104",
  "SequenceVariant": "SK_SS",
  "SeriesDescription": "func_task-shinobi_run-2",
  "SeriesNumber": 15,
  "ShimSetting": [622, -7204, -8883, 379, -1, -170, 20, -24],
  "SliceThickness": 2,
  "SliceTiming": [0, 0.785, 0.0975, 0.8825, 0.195, 0.98, 0.295, 1.0775, 0.3925, 1.175, 0.49, 1.2725, 0.5875, 1.3725, 0.685, 0, 0.785, 0.0975, 0.8825, 0.195, 0.98, 0.295, 1.0775, 0.3925, 1.175, 0.49, 1.2725, 0.5875, 1.3725, 0.685, 0, 0.785, 0.0975, 0.8825, 0.195, 0.98, 0.295, 1.0775, 0.3925, 1.175, 0.49, 1.2725, 0.5875, 1.3725, 0.685, 0, 0.785, 0.0975, 0.8825, 0.195, 0.98, 0.295, 1.0775, 0.3925, 1.175, 0.49, 1.2725, 0.5875, 1.3725, 0.685],
  "SoftwareVersions": "syngo_MR_E11",
  "SpacingBetweenSlices": 2,
  "StationName": "MRC35049",
  "TaskName": "shinobi",
  "TotalReadoutTime": 0.0576811,
  "TxRefAmp": 247.481,
  "WipMemBlock": "80d84e28-b1f5-447e-8d00-c7f23fdf3aaa||Sequence: R016 ve11c/master r/e634e98; Dec 19 2017 11:00:25 by eja",
  "dcmmeta_affine": [
    [-1.9981886148452759, -0.04604312404990196, 0.07156885415315628, 107.92930603027344],
    [-0.07514617592096329, 1.7440369129180908, -0.9760575890541077, -48.66750717163086],
    [0.039938993752002716, 0.9778626561164856, 1.744187355041504, -95.3076400756836],
    [0.0, 0.0, 0.0, 1.0]
],
  "dcmmeta_reorient_transform": [
    [0.0, -1.0, 0.0, 103.0],
    [1.0, 0.0, 0.0, 0.0],
    [0.0, 0.0, 1.0, 0.0],
    [0.0, 0.0, 0.0, 1.0]
],
  "dcmmeta_shape": [104, 104, 60, 502],
  "dcmmeta_slice_dim": 2,
  "dcmmeta_version": 0.6,
  "global": {
    "const": {
      "AcquisitionMatrix": [104, 0, 0, 104],
      "AngioFlag": "N",
      "BitsAllocated": 16,
      "BitsStored": 16,
      "BodyPartExamined": "BRAIN",
      "Columns": 832,
      "EchoNumbers": 1,
      "EchoTime": 37.0,
      "EchoTrainLength": 104,
      "FlipAngle": 52.0,
      "HighBit": 15,
      "ImageOrientationPatient": [0.99909433106877, 0.0375730864819, 0.01996949670061, -0.0230215612249, 0.87201843570751, -0.4889313402769],
      "ImagePositionPatient": [-813.76783759805, -793.15091977702, 346.81643635061],
      "ImageType": [
        "ORIGINAL",
        "PRIMARY",
        "M",
        "MB",
        "ND",
        "MOSAIC"
],
      "ImagedNucleus": "1H",
      "ImagingFrequency": 123.259065,
      "InPlanePhaseEncodingDirection": "COL",
      "MRAcquisitionType": "2D",
      "MagneticFieldStrength": 3.0,
      "Manufacturer": "SIEMENS",
      "ManufacturerModelName": "Prisma_fit",
      "Modality": "MR",
      "NumberOfAverages": 1.0,
      "NumberOfPhaseEncodingSteps": 104,
      "PercentPhaseFieldOfView": 100.0,
      "PercentSampling": 100.0,
      "PerformedProcedureStepStartTime": "104549.245000",
      "PhotometricInterpretation": "MONOCHROME2",
      "PixelBandwidth": 2290.0,
      "PixelRepresentation": 0,
      "PixelSpacing": [2.0, 2.0],
      "ProtocolName": "func_task-shinobi_run-2",
      "RepetitionTime": 1490.0,
      "Rows": 832,
      "SAR": 0.03485318268494,
      "SamplesPerPixel": 1,
      "ScanOptions": "FS",
      "ScanningSequence": "EP",
      "SequenceName": "epfid2d1_104",
      "SequenceVariant": [
        "SK",
        "SS"
],
      "SeriesDescription": "func_task-shinobi_run-2",
      "SeriesNumber": 15,
      "SeriesTime": "112018.459000",
      "SliceLocation": -55.503857739693,
      "SliceThickness": 2.0,
      "SmallestImagePixelValue": 0,
      "SoftwareVersions": "syngo MR E11",
      "SpacingBetweenSlices": 1.9999999601013,
      "SpecificCharacterSet": "ISO_IR 100",
      "StudyID": "1",
      "StudyTime": "104549.181000",
      "TransmitCoilName": "Body",
      "VariableFlipAngleFlag": "N",
      "WindowCenterWidthExplanation": "Algo1",
      "dBdt": 0.0},
    "slices": {}
  },
  "time": {
    "samples": {
      "AcquisitionNumber": [1, 2, 3, 4, 5, 6, 7, 8, 9, 10, 11, 12, 13, 14, 15, 16, 17, 18, 19, 20, 21, 22, 23, 24, 25, 26, 27, 28, 29, 30, 31, 32, 33, 34, 35, 36, 37, 38, 39, 40, 41, 42, 43, 44, 45, 46, 47, 48, 49, 50, 51, 52, 53, 54, 55, 56, 57, 58, 59, 60, 61, 62, 63, 64, 65, 66, 67, 68, 69, 70, 71, 72, 73, 74, 75, 76, 77, 78, 79, 80, 81, 82, 83, 84, 85, 86, 87, 88, 89, 90, 91, 92, 93, 94, 95, 96, 97, 98, 99, 100, 101, 102, 103, 104, 105, 106, 107, 108, 109, 110, 111, 112, 113, 114, 115, 116, 117, 118, 119, 120, 121, 122, 123, 124, 125, 126, 127, 128, 129, 130, 131, 132, 133, 134, 135, 136, 137, 138, 139, 140, 141, 142, 143, 144, 145, 146, 147, 148, 149, 150, 151, 152, 153, 154, 155, 156, 157, 158, 159, 160, 161, 162, 163, 164, 165, 166, 167, 168, 169, 170, 171, 172, 173, 174, 175, 176, 177, 178, 179, 180, 181, 182, 183, 184, 185, 186, 187, 188, 189, 190, 191, 192, 193, 194, 195, 196, 197, 198, 199, 200, 201, 202, 203, 204, 205, 206, 207, 208, 209, 210, 211, 212, 213, 214, 215, 216, 217, 218, 219, 220, 221, 222, 223, 224, 225, 226, 227, 228, 229, 230, 231, 232, 233, 234, 235, 236, 237, 238, 239, 240, 241, 242, 243, 244, 245, 246, 247, 248, 249, 250, 251, 252, 253, 254, 255, 256, 257, 258, 259, 260, 261, 262, 263, 264, 265, 266, 267, 268, 269, 270, 271, 272, 273, 274, 275, 276, 277, 278, 279, 280, 281, 282, 283, 284, 285, 286, 287, 288, 289, 290, 291, 292, 293, 294, 295, 296, 297, 298, 299, 300, 301, 302, 303, 304, 305, 306, 307, 308, 309, 310, 311, 312, 313, 314, 315, 316, 317, 318, 319, 320, 321, 322, 323, 324, 325, 326, 327, 328, 329, 330, 331, 332, 333, 334, 335, 336, 337, 338, 339, 340, 341, 342, 343, 344, 345, 346, 347, 348, 349, 350, 351, 352, 353, 354, 355, 356, 357, 358, 359, 360, 361, 362, 363, 364, 365, 366, 367, 368, 369, 370, 371, 372, 373, 374, 375, 376, 377, 378, 379, 380, 381, 382, 383, 384, 385, 386, 387, 388, 389, 390, 391, 392, 393, 394, 395, 396, 397, 398, 399, 400, 401, 402, 403, 404, 405, 406, 407, 408, 409, 410, 411, 412, 413, 414, 415, 416, 417, 418, 419, 420, 421, 422, 423, 424, 425, 426, 427, 428, 429, 430, 431, 432, 433, 434, 435, 436, 437, 438, 439, 440, 441, 442, 443, 444, 445, 446, 447, 448, 449, 450, 451, 452, 453, 454, 455, 456, 457, 458, 459, 460, 461, 462, 463, 464, 465, 466, 467, 468, 469, 470, 471, 472, 473, 474, 475, 476, 477, 478, 479, 480, 481, 482, 483, 484, 485, 486, 487, 488, 489, 490, 491, 492, 493, 494, 495, 496, 497, 498, 499, 500, 501, 502],
      "AcquisitionTime": ["111857.472500", "111858.962500", "111900.452500", "111901.942500", "111903.432500", "111904.922500", "111906.412500", "111907.902500", "111909.392500", "111910.882500", "111912.372500", "111913.862500", "111915.352500", "111916.842500", "111918.332500", "111919.822500", "111921.312500", "111922.802500", "111924.292500", "111925.782500", "111927.272500", "111928.762500", "111930.252500", "111931.742500", "111933.232500", "111934.722500", "111936.212500", "111937.702500", "111939.192500", "111940.682500", "111942.172500", "111943.662500", "111945.152500", "111946.642500", "111948.132500", "111949.622500", "111951.112500", "111952.602500", "111954.092500", "111955.582500", "111957.072500", "111958.562500", "112000.052500", "112001.542500", "112003.032500", "112004.522500", "112006.012500", "112007.502500", "112008.992500", "112010.482500", "112011.972500", "112013.462500", "112014.952500", "112016.442500", "112017.932500", "112019.422500", "112020.912500", "112022.402500", "112023.892500", "112025.382500", "112026.872500", "112028.362500", "112029.852500", "112031.342500", "112032.832500", "112034.322500", "112035.812500", "112037.302500", "112038.792500", "112040.282500", "112041.772500", "112043.262500", "112044.752500", "112046.242500", "112047.732500", "112049.222500", "112050.712500", "112052.202500", "112053.692500", "112055.182500", "112056.672500", "112058.162500", "112059.652500", "112101.142500", "112102.632500", "112104.122500", "112105.612500", "112107.102500", "112108.592500", "112110.082500", "112111.572500", "112113.062500", "112114.552500", "112116.042500", "112117.532500", "112119.022500", "112120.512500", "112122.002500", "112123.492500", "112124.982500", "112126.472500", "112127.962500", "112129.452500", "112130.942500", "112132.432500", "112133.922500", "112135.412500", "112136.902500", "112138.392500", "112139.882500", "112141.372500", "112142.862500", "112144.352500", "112145.842500", "112147.332500", "112148.822500", "112150.312500", "112151.802500", "112153.292500", "112154.782500", "112156.272500", "112157.762500", "112159.252500", "112200.742500", "112202.232500", "112203.722500", "112205.212500", "112206.702500", "112208.192500", "112209.682500", "112211.172500", "112212.662500", "112214.152500", "112215.642500", "112217.132500", "112218.622500", "112220.112500", "112221.602500", "112223.092500", "112224.582500", "112226.072500", "112227.562500", "112229.052500", "112230.542500", "112232.032500", "112233.522500", "112235.012500", "112236.502500", "112237.992500", "112239.482500", "112240.972500", "112242.462500", "112243.952500", "112245.442500", "112246.932500", "112248.422500", "112249.912500", "112251.402500", "112252.892500", "112254.382500", "112255.872500", "112257.362500", "112258.852500", "112300.342500", "112301.832500", "112303.322500", "112304.812500", "112306.302500", "112307.792500", "112309.282500", "112310.772500", "112312.262500", "112313.752500", "112315.242500", "112316.732500", "112318.222500", "112319.712500", "112321.202500", "112322.692500", "112324.182500", "112325.672500", "112327.162500", "112328.652500", "112330.142500", "112331.632500", "112333.122500", "112334.612500", "112336.102500", "112337.592500", "112339.082500", "112340.572500", "112342.062500", "112343.552500", "112345.042500", "112346.532500", "112348.022500", "112349.512500", "112351.002500", "112352.492500", "112353.982500", "112355.472500", "112356.962500", "112358.452500", "112359.942500", "112401.432500", "112402.922500", "112404.412500", "112405.902500", "112407.392500", "112408.882500", "112410.372500", "112411.862500", "112413.352500", "112414.842500", "112416.332500", "112417.822500", "112419.312500", "112420.802500", "112422.292500", "112423.782500", "112425.272500", "112426.762500", "112428.252500", "112429.742500", "112431.232500", "112432.722500", "112434.212500", "112435.702500", "112437.192500", "112438.682500", "112440.172500", "112441.662500", "112443.152500", "112444.642500", "112446.132500", "112447.622500", "112449.112500", "112450.602500", "112452.092500", "112453.582500", "112455.072500", "112456.562500", "112458.052500", "112459.542500", "112501.032500", "112502.522500", "112504.012500", "112505.502500", "112506.992500", "112508.482500", "112509.972500", "112511.462500", "112512.952500", "112514.442500", "112515.932500", "112517.422500", "112518.912500", "112520.402500", "112521.892500", "112523.382500", "112524.872500", "112526.362500", "112527.852500", "112529.342500", "112530.832500", "112532.322500", "112533.812500", "112535.302500", "112536.792500", "112538.282500", "112539.772500", "112541.262500", "112542.752500", "112544.242500", "112545.732500", "112547.222500", "112548.712500", "112550.202500", "112551.692500", "112553.182500", "112554.672500", "112556.162500", "112557.652500", "112559.142500", "112600.632500", "112602.122500", "112603.612500", "112605.102500", "112606.592500", "112608.082500", "112609.572500", "112611.062500", "112612.552500", "112614.042500", "112615.532500", "112617.022500", "112618.512500", "112620.002500", "112621.492500", "112622.982500", "112624.472500", "112625.962500", "112627.452500", "112628.942500", "112630.432500", "112631.922500", "112633.412500", "112634.902500", "112636.392500", "112637.882500", "112639.372500", "112640.862500", "112642.352500", "112643.842500", "112645.332500", "112646.822500", "112648.312500", "112649.802500", "112651.292500", "112652.782500", "112654.272500", "112655.762500", "112657.252500", "112658.742500", "112700.232500", "112701.722500", "112703.212500", "112704.702500", "112706.192500", "112707.682500", "112709.172500", "112710.662500", "112712.152500", "112713.642500", "112715.132500", "112716.622500", "112718.112500", "112719.602500", "112721.092500", "112722.582500", "112724.072500", "112725.562500", "112727.052500", "112728.542500", "112730.032500", "112731.522500", "112733.012500", "112734.502500", "112735.992500", "112737.482500", "112738.972500", "112740.462500", "112741.952500", "112743.442500", "112744.932500", "112746.422500", "112747.912500", "112749.402500", "112750.892500", "112752.382500", "112753.872500", "112755.362500", "112756.852500", "112758.342500", "112759.832500", "112801.322500", "112802.812500", "112804.302500", "112805.792500", "112807.282500", "112808.772500", "112810.262500", "112811.752500", "112813.242500", "112814.732500", "112816.222500", "112817.712500", "112819.202500", "112820.692500", "112822.182500", "112823.672500", "112825.162500", "112826.652500", "112828.142500", "112829.632500", "112831.122500", "112832.612500", "112834.102500", "112835.592500", "112837.082500", "112838.572500", "112840.062500", "112841.552500", "112843.042500", "112844.532500", "112846.022500", "112847.512500", "112849.002500", "112850.492500", "112851.982500", "112853.472500", "112854.962500", "112856.452500", "112857.942500", "112859.432500", "112900.922500", "112902.412500", "112903.902500", "112905.392500", "112906.882500", "112908.372500", "112909.862500", "112911.352500", "112912.842500", "112914.332500", "112915.822500", "112917.312500", "112918.802500", "112920.292500", "112921.782500", "112923.272500", "112924.762500", "112926.252500", "112927.742500", "112929.232500", "112930.722500", "112932.212500", "112933.702500", "112935.192500", "112936.682500", "112938.172500", "112939.662500", "112941.152500", "112942.642500", "112944.132500", "112945.622500", "112947.112500", "112948.602500", "112950.092500", "112951.582500", "112953.072500", "112954.562500", "112956.052500", "112957.542500", "112959.032500", "113000.522500", "113002.012500", "113003.502500", "113004.992500", "113006.482500", "113007.972500", "113009.462500", "113010.952500", "113012.442500", "113013.932500", "113015.422500", "113016.912500", "113018.402500", "113019.892500", "113021.382500", "113022.872500", "113024.362500", "113025.852500", "113027.342500", "113028.832500", "113030.322500", "113031.812500", "113033.302500", "113034.792500", "113036.282500", "113037.772500", "113039.262500", "113040.752500", "113042.242500", "113043.732500", "113045.222500", "113046.712500", "113048.202500", "113049.692500", "113051.182500", "113052.672500", "113054.162500", "113055.652500", "113057.142500", "113058.632500", "113100.122500", "113101.612500", "113103.102500", "113104.592500", "113106.082500", "113107.572500", "113109.062500", "113110.552500", "113112.042500", "113113.532500", "113115.022500", "113116.512500", "113118.002500", "113119.492500", "113120.982500", "113122.472500", "113123.962500"],
      "ContentTime": ["112018.462000", "112018.466000", "112018.469000", "112018.471000", "112018.474000", "112018.477000", "112018.480000", "112018.483000", "112018.486000", "112018.489000", "112018.492000", "112018.494000", "112018.497000", "112018.500000", "112018.503000", "112018.506000", "112018.509000", "112018.514000", "112018.517000", "112018.520000", "112018.523000", "112018.526000", "112018.529000", "112018.531000", "112018.534000", "112018.537000", "112018.540000", "112038.424000", "112038.427000", "112038.430000", "112038.433000", "112038.436000", "112038.439000", "112038.441000", "112038.444000", "112038.447000", "112038.454000", "112038.457000", "112038.473000", "112038.476000", "112038.479000", "112038.482000", "112038.484000", "112038.487000", "112038.490000", "112038.493000", "112038.496000", "112058.424000", "112058.427000", "112058.430000", "112058.433000", "112058.436000", "112058.439000", "112058.442000", "112058.445000", "112058.448000", "112058.451000", "112058.454000", "112058.456000", "112058.459000", "112058.462000", "112058.465000", "112058.468000", "112058.472000", "112058.475000", "112058.478000", "112058.480000", "112118.425000", "112118.428000", "112118.431000", "112118.434000", "112118.436000", "112118.439000", "112118.442000", "112118.445000", "112118.448000", "112118.451000", "112118.454000", "112118.457000", "112118.459000", "112118.462000", "112118.465000", "112118.468000", "112118.471000", "112118.484000", "112118.487000", "112118.490000", "112138.425000", "112138.428000", "112138.431000", "112138.434000", "112138.437000", "112138.440000", "112138.443000", "112138.446000", "112138.449000", "112138.452000", "112138.454000", "112138.457000", "112138.460000", "112138.463000", "112138.466000", "112138.469000", "112138.472000", "112138.486000", "112138.488000", "112138.491000", "112218.424000", "112218.427000", "112218.430000", "112218.433000", "112218.436000", "112218.439000", "112218.441000", "112218.444000", "112218.447000", "112218.450000", "112218.453000", "112218.456000", "112218.459000", "112218.462000", "112218.465000", "112218.468000", "112218.471000", "112218.473000", "112218.476000", "112218.479000", "112218.482000", "112218.485000", "112218.488000", "112218.491000", "112218.494000", "112218.503000", "112218.506000", "112258.424000", "112258.427000", "112258.430000", "112258.433000", "112258.436000", "112258.438000", "112258.442000", "112258.444000", "112258.447000", "112258.450000", "112258.453000", "112258.456000", "112258.459000", "112258.462000", "112258.464000", "112258.467000", "112258.470000", "112258.473000", "112258.476000", "112258.479000", "112258.481000", "112258.484000", "112258.487000", "112258.490000", "112258.493000", "112258.496000", "112258.499000", "112338.425000", "112338.428000", "112338.431000", "112338.434000", "112338.437000", "112338.440000", "112338.442000", "112338.445000", "112338.448000", "112338.451000", "112338.454000", "112338.457000", "112338.460000", "112338.463000", "112338.465000", "112338.468000", "112338.471000", "112338.474000", "112338.477000", "112338.480000", "112338.482000", "112338.486000", "112338.488000", "112338.491000", "112338.494000", "112338.497000", "112338.500000", "112418.424000", "112418.427000", "112418.430000", "112418.433000", "112418.436000", "112418.439000", "112418.441000", "112418.444000", "112418.447000", "112418.450000", "112418.453000", "112418.456000", "112418.459000", "112418.462000", "112418.464000", "112418.467000", "112418.470000", "112418.473000", "112418.476000", "112418.479000", "112418.485000", "112418.488000", "112418.491000", "112418.493000", "112418.497000", "112418.499000", "112418.502000", "112458.424000", "112458.427000", "112458.430000", "112458.433000", "112458.436000", "112458.439000", "112458.442000", "112458.445000", "112458.448000", "112458.451000", "112458.454000", "112458.458000", "112458.461000", "112458.464000", "112458.467000", "112458.471000", "112458.474000", "112458.476000", "112458.479000", "112458.491000", "112458.495000", "112458.497000", "112458.500000", "112458.503000", "112458.506000", "112458.509000", "112538.425000", "112538.428000", "112538.431000", "112538.434000", "112538.437000", "112538.440000", "112538.443000", "112538.445000", "112538.448000", "112538.451000", "112538.454000", "112538.457000", "112538.460000", "112538.463000", "112538.466000", "112538.468000", "112538.471000", "112538.474000", "112538.477000", "112538.480000", "112538.483000", "112538.486000", "112538.489000", "112538.491000", "112538.494000", "112538.497000", "112538.500000", "112618.425000", "112618.428000", "112618.431000", "112618.434000", "112618.437000", "112618.440000", "112618.443000", "112618.446000", "112618.449000", "112618.452000", "112618.454000", "112618.457000", "112618.460000", "112618.463000", "112618.466000", "112618.469000", "112618.472000", "112618.475000", "112618.477000", "112618.480000", "112618.483000", "112618.486000", "112618.489000", "112618.492000", "112618.495000", "112618.498000", "112618.500000", "112658.424000", "112658.427000", "112658.430000", "112658.433000", "112658.436000", "112658.439000", "112658.442000", "112658.445000", "112658.448000", "112658.450000", "112658.453000", "112658.456000", "112658.459000", "112658.462000", "112658.465000", "112658.468000", "112658.471000", "112658.474000", "112658.477000", "112658.480000", "112658.483000", "112658.485000", "112658.488000", "112658.491000", "112658.494000", "112658.497000", "112658.500000", "112738.424000", "112738.427000", "112738.430000", "112738.433000", "112738.436000", "112738.439000", "112738.442000", "112738.444000", "112738.447000", "112738.450000", "112738.453000", "112738.456000", "112738.459000", "112738.462000", "112738.465000", "112738.468000", "112738.471000", "112738.474000", "112738.477000", "112738.480000", "112738.482000", "112738.485000", "112738.488000", "112738.491000", "112738.494000", "112738.497000", "112738.500000", "112818.425000", "112818.428000", "112818.431000", "112818.434000", "112818.437000", "112818.440000", "112818.443000", "112818.446000", "112818.448000", "112818.451000", "112818.454000", "112818.457000", "112818.460000", "112818.463000", "112818.466000", "112818.469000", "112818.471000", "112818.474000", "112818.477000", "112818.480000", "112818.483000", "112818.486000", "112818.489000", "112818.492000", "112818.494000", "112818.497000", "112818.500000", "112858.424000", "112858.427000", "112858.430000", "112858.433000", "112858.436000", "112858.439000", "112858.442000", "112858.445000", "112858.448000", "112858.450000", "112858.453000", "112858.456000", "112858.459000", "112858.462000", "112858.465000", "112858.468000", "112858.471000", "112858.474000", "112858.476000", "112858.479000", "112858.482000", "112858.485000", "112858.488000", "112858.491000", "112858.494000", "112858.497000", "112858.499000", "112938.424000", "112938.427000", "112938.430000", "112938.433000", "112938.436000", "112938.439000", "112938.442000", "112938.445000", "112938.448000", "112938.451000", "112938.454000", "112938.457000", "112938.460000", "112938.463000", "112938.466000", "112938.479000", "112938.482000", "112938.485000", "112938.488000", "112938.491000", "112938.494000", "112938.497000", "112938.500000", "112938.502000", "112938.505000", "112938.508000", "113018.425000", "113018.428000", "113018.431000", "113018.434000", "113018.437000", "113018.440000", "113018.443000", "113018.446000", "113018.448000", "113018.451000", "113018.454000", "113018.457000", "113018.460000", "113018.463000", "113018.466000", "113018.469000", "113018.471000", "113018.474000", "113018.477000", "113018.480000", "113018.483000", "113018.486000", "113018.489000", "113018.492000", "113018.495000", "113018.498000", "113018.500000", "113058.425000", "113058.428000", "113058.431000", "113058.434000", "113058.437000", "113058.440000", "113058.443000", "113058.445000", "113058.449000", "113058.451000", "113058.454000", "113058.457000", "113058.460000", "113058.463000", "113058.466000", "113058.469000", "113058.472000", "113058.475000", "113058.478000", "113058.481000", "113058.484000", "113058.487000", "113058.489000", "113058.492000", "113058.495000", "113058.498000", "113058.501000", "113127.168000", "113127.171000", "113127.174000", "113127.177000", "113127.180000", "113127.183000", "113127.186000", "113127.189000", "113127.191000", "113127.194000", "113127.197000", "113127.201000", "113127.204000", "113127.207000", "113127.210000", "113127.213000", "113127.215000", "113127.218000", "113127.221000"],
