{
  "AcquisitionMatrixPE": 104,
  "AcquisitionNumber": 1,
  "AcquisitionTime": "11:05:10.587500",
  "BandwidthPerPixelPhaseEncode": 17.17,
  "BaseResolution": 104,
  "BodyPartExamined": "BRAIN",
  "CoilString": "HC1-7;NC1_2",
  "ConsistencyInfo": "N4_VE11C_LATEST_20160120",
  "ConversionSoftware": "dcm2niix",
  "ConversionSoftwareVersion": "v1.0.20190902",
  "DerivedVendorReportedEchoSpacing": 0.000560011,
  "DeviceSerialNumber": "167006",
  "DwellTime": 2.1e-06,
  "EchoTime": 0.037,
  "EchoTrainLength": 104,
  "EffectiveEchoSpacing": 0.000560011,
  "FlipAngle": 52,
  "ImageComments": "Unaliased_MB4_PE3_LB",
  "ImageOrientationPatientDICOM": [0.999094, 0.0375731, 0.0199695, -0.0230216, 0.872018, -0.488931],
  "ImageType": [
    "ORIGINAL",
    "PRIMARY",
    "M",
    "MB",
    "ND",
    "MOSAIC"
],
  "ImagingFrequency": 123.259,
  "InPlanePhaseEncodingDirectionDICOM": "COL",
  "InstitutionAddress": "Chemin_Queen-Mary_4565_Montreal_District_CA_H3W_1W5",
  "InstitutionName": "IUGM",
  "InstitutionalDepartmentName": "Department",
  "MRAcquisitionType": "2D",
  "MagneticFieldStrength": 3,
  "Manufacturer": "Siemens",
  "ManufacturersModelName": "Prisma_fit",
  "Modality": "MR",
  "MultibandAccelerationFactor": 4,
  "PartialFourier": 1,
  "PatientPosition": "HFS",
  "PercentPhaseFOV": 100,
  "PhaseEncodingDirection": "j",
  "PhaseEncodingSteps": 104,
  "PhaseResolution": 1,
  "PixelBandwidth": 2290,
  "ProcedureStepDescription": "games_shinobi",
  "ProtocolName": "func_task-shinobi_run-1",
  "PulseSequenceDetails": "%CustomerSeq%_cmrr_mbep2d_bold",
  "ReceiveCoilActiveElements": "HC1-7;NC1,2",
  "ReceiveCoilName": "HeadNeck_64",
  "ReconMatrixPE": 104,
  "RepetitionTime": 1.49,
  "SAR": 0.0348532,
  "ScanOptions": "FS",
  "ScanningSequence": "EP",
  "SequenceName": "epfid2d1_104",
  "SequenceVariant": "SK_SS",
  "SeriesDescription": "func_task-shinobi_run-1",
  "SeriesNumber": 13,
  "ShimSetting": [622, -7204, -8883, 379, -1, -170, 20, -24],
  "SliceThickness": 2,
  "SliceTiming": [0, 0.785, 0.0975, 0.8825, 0.195, 0.98, 0.295, 1.0775, 0.3925, 1.175, 0.49, 1.275, 0.5875, 1.3725, 0.685, 0, 0.785, 0.0975, 0.8825, 0.195, 0.98, 0.295, 1.0775, 0.3925, 1.175, 0.49, 1.275, 0.5875, 1.3725, 0.685, 0, 0.785, 0.0975, 0.8825, 0.195, 0.98, 0.295, 1.0775, 0.3925, 1.175, 0.49, 1.275, 0.5875, 1.3725, 0.685, 0, 0.785, 0.0975, 0.8825, 0.195, 0.98, 0.295, 1.0775, 0.3925, 1.175, 0.49, 1.275, 0.5875, 1.3725, 0.685],
  "SoftwareVersions": "syngo_MR_E11",
  "SpacingBetweenSlices": 2,
  "StationName": "MRC35049",
  "TaskName": "shinobi",
  "TotalReadoutTime": 0.0576811,
  "TxRefAmp": 247.481,
  "WipMemBlock": "b62f0c58-78f3-4034-960c-7afb3496eca3||Sequence: R016 ve11c/master r/e634e98; Dec 19 2017 11:00:25 by eja",
  "dcmmeta_affine": [
    [-1.9981886148452759, -0.04604312404990196, 0.07156885415315628, 107.92930603027344],
    [-0.07514617592096329, 1.7440369129180908, -0.9760575890541077, -48.66750717163086],
    [0.039938993752002716, 0.9778626561164856, 1.744187355041504, -95.3076400756836],
    [0.0, 0.0, 0.0, 1.0]
],
  "dcmmeta_reorient_transform": [
    [0.0, -1.0, 0.0, 103.0],
    [1.0, 0.0, 0.0, 0.0],
    [0.0, 0.0, 1.0, 0.0],
    [0.0, 0.0, 0.0, 1.0]
],
  "dcmmeta_shape": [104, 104, 60, 503],
  "dcmmeta_slice_dim": 2,
  "dcmmeta_version": 0.6,
  "global": {
    "const": {
      "AcquisitionMatrix": [104, 0, 0, 104],
      "AngioFlag": "N",
      "BitsAllocated": 16,
      "BitsStored": 16,
      "BodyPartExamined": "BRAIN",
      "Columns": 832,
      "EchoNumbers": 1,
      "EchoTime": 37.0,
      "EchoTrainLength": 104,
      "FlipAngle": 52.0,
      "HighBit": 15,
      "ImageOrientationPatient": [0.99909433106877, 0.0375730864819, 0.01996949670061, -0.0230215612249, 0.87201843570751, -0.4889313402769],
      "ImagePositionPatient": [-813.76783759805, -793.15091977702, 346.81643635061],
      "ImageType": [
        "ORIGINAL",
        "PRIMARY",
        "M",
        "MB",
        "ND",
        "MOSAIC"
],
      "ImagedNucleus": "1H",
      "ImagingFrequency": 123.259052,
      "InPlanePhaseEncodingDirection": "COL",
      "MRAcquisitionType": "2D",
      "MagneticFieldStrength": 3.0,
      "Manufacturer": "SIEMENS",
      "ManufacturerModelName": "Prisma_fit",
      "Modality": "MR",
      "NumberOfAverages": 1.0,
      "NumberOfPhaseEncodingSteps": 104,
      "PercentPhaseFieldOfView": 100.0,
      "PercentSampling": 100.0,
      "PerformedProcedureStepStartTime": "104549.245000",
      "PhotometricInterpretation": "MONOCHROME2",
      "PixelBandwidth": 2290.0,
      "PixelRepresentation": 0,
      "PixelSpacing": [2.0, 2.0],
      "ProtocolName": "func_task-shinobi_run-1",
      "RepetitionTime": 1490.0,
      "Rows": 832,
      "SAR": 0.03485318268494,
      "SamplesPerPixel": 1,
      "ScanOptions": "FS",
      "ScanningSequence": "EP",
      "SequenceName": "epfid2d1_104",
      "SequenceVariant": [
        "SK",
        "SS"
],
      "SeriesDescription": "func_task-shinobi_run-1",
      "SeriesNumber": 13,
      "SeriesTime": "110624.469000",
      "SliceLocation": -55.503857739693,
      "SliceThickness": 2.0,
      "SmallestImagePixelValue": 0,
      "SoftwareVersions": "syngo MR E11",
      "SpacingBetweenSlices": 1.9999999601013,
      "SpecificCharacterSet": "ISO_IR 100",
      "StudyID": "1",
      "StudyTime": "104549.181000",
      "TransmitCoilName": "Body",
      "VariableFlipAngleFlag": "N",
      "WindowCenterWidthExplanation": "Algo1",
      "dBdt": 0.0},
    "slices": {}
  },
  "time": {
    "samples": {
      "AcquisitionNumber": [1, 2, 3, 4, 5, 6, 7, 8, 9, 10, 11, 12, 13, 14, 15, 16, 17, 18, 19, 20, 21, 22, 23, 24, 25, 26, 27, 28, 29, 30, 31, 32, 33, 34, 35, 36, 37, 38, 39, 40, 41, 42, 43, 44, 45, 46, 47, 48, 49, 50, 51, 52, 53, 54, 55, 56, 57, 58, 59, 60, 61, 62, 63, 64, 65, 66, 67, 68, 69, 70, 71, 72, 73, 74, 75, 76, 77, 78, 79, 80, 81, 82, 83, 84, 85, 86, 87, 88, 89, 90, 91, 92, 93, 94, 95, 96, 97, 98, 99, 100, 101, 102, 103, 104, 105, 106, 107, 108, 109, 110, 111, 112, 113, 114, 115, 116, 117, 118, 119, 120, 121, 122, 123, 124, 125, 126, 127, 128, 129, 130, 131, 132, 133, 134, 135, 136, 137, 138, 139, 140, 141, 142, 143, 144, 145, 146, 147, 148, 149, 150, 151, 152, 153, 154, 155, 156, 157, 158, 159, 160, 161, 162, 163, 164, 165, 166, 167, 168, 169, 170, 171, 172, 173, 174, 175, 176, 177, 178, 179, 180, 181, 182, 183, 184, 185, 186, 187, 188, 189, 190, 191, 192, 193, 194, 195, 196, 197, 198, 199, 200, 201, 202, 203, 204, 205, 206, 207, 208, 209, 210, 211, 212, 213, 214, 215, 216, 217, 218, 219, 220, 221, 222, 223, 224, 225, 226, 227, 228, 229, 230, 231, 232, 233, 234, 235, 236, 237, 238, 239, 240, 241, 242, 243, 244, 245, 246, 247, 248, 249, 250, 251, 252, 253, 254, 255, 256, 257, 258, 259, 260, 261, 262, 263, 264, 265, 266, 267, 268, 269, 270, 271, 272, 273, 274, 275, 276, 277, 278, 279, 280, 281, 282, 283, 284, 285, 286, 287, 288, 289, 290, 291, 292, 293, 294, 295, 296, 297, 298, 299, 300, 301, 302, 303, 304, 305, 306, 307, 308, 309, 310, 311, 312, 313, 314, 315, 316, 317, 318, 319, 320, 321, 322, 323, 324, 325, 326, 327, 328, 329, 330, 331, 332, 333, 334, 335, 336, 337, 338, 339, 340, 341, 342, 343, 344, 345, 346, 347, 348, 349, 350, 351, 352, 353, 354, 355, 356, 357, 358, 359, 360, 361, 362, 363, 364, 365, 366, 367, 368, 369, 370, 371, 372, 373, 374, 375, 376, 377, 378, 379, 380, 381, 382, 383, 384, 385, 386, 387, 388, 389, 390, 391, 392, 393, 394, 395, 396, 397, 398, 399, 400, 401, 402, 403, 404, 405, 406, 407, 408, 409, 410, 411, 412, 413, 414, 415, 416, 417, 418, 419, 420, 421, 422, 423, 424, 425, 426, 427, 428, 429, 430, 431, 432, 433, 434, 435, 436, 437, 438, 439, 440, 441, 442, 443, 444, 445, 446, 447, 448, 449, 450, 451, 452, 453, 454, 455, 456, 457, 458, 459, 460, 461, 462, 463, 464, 465, 466, 467, 468, 469, 470, 471, 472, 473, 474, 475, 476, 477, 478, 479, 480, 481, 482, 483, 484, 485, 486, 487, 488, 489, 490, 491, 492, 493, 494, 495, 496, 497, 498, 499, 500, 501, 502, 503],
      "AcquisitionTime": ["110510.587500", "110512.077500", "110513.567500", "110515.057500", "110516.547500", "110518.037500", "110519.527500", "110521.017500", "110522.507500", "110523.997500", "110525.487500", "110526.977500", "110528.467500", "110529.957500", "110531.447500", "110532.937500", "110534.427500", "110535.917500", "110537.407500", "110538.897500", "110540.387500", "110541.877500", "110543.367500", "110544.857500", "110546.347500", "110547.837500", "110549.327500", "110550.817500", "110552.307500", "110553.797500", "110555.287500", "110556.777500", "110558.267500", "110559.757500", "110601.247500", "110602.737500", "110604.227500", "110605.717500", "110607.207500", "110608.697500", "110610.187500", "110611.677500", "110613.167500", "110614.657500", "110616.147500", "110617.637500", "110619.127500", "110620.617500", "110622.107500", "110623.597500", "110625.087500", "110626.577500", "110628.067500", "110629.557500", "110631.047500", "110632.537500", "110634.027500", "110635.517500", "110637.007500", "110638.497500", "110639.987500", "110641.477500", "110642.967500", "110644.457500", "110645.947500", "110647.437500", "110648.927500", "110650.417500", "110651.907500", "110653.397500", "110654.887500", "110656.377500", "110657.867500", "110659.357500", "110700.847500", "110702.337500", "110703.827500", "110705.317500", "110706.807500", "110708.297500", "110709.787500", "110711.277500", "110712.767500", "110714.257500", "110715.747500", "110717.237500", "110718.727500", "110720.217500", "110721.707500", "110723.197500", "110724.687500", "110726.177500", "110727.667500", "110729.157500", "110730.647500", "110732.137500", "110733.627500", "110735.117500", "110736.607500", "110738.097500", "110739.587500", "110741.077500", "110742.567500", "110744.057500", "110745.547500", "110747.037500", "110748.527500", "110750.017500", "110751.507500", "110752.997500", "110754.487500", "110755.977500", "110757.467500", "110758.957500", "110800.447500", "110801.937500", "110803.427500", "110804.917500", "110806.407500", "110807.897500", "110809.387500", "110810.877500", "110812.367500", "110813.857500", "110815.347500", "110816.837500", "110818.327500", "110819.817500", "110821.307500", "110822.797500", "110824.287500", "110825.777500", "110827.267500", "110828.757500", "110830.247500", "110831.737500", "110833.227500", "110834.717500", "110836.207500", "110837.697500", "110839.187500", "110840.677500", "110842.167500", "110843.657500", "110845.147500", "110846.637500", "110848.127500", "110849.617500", "110851.107500", "110852.597500", "110854.087500", "110855.577500", "110857.067500", "110858.557500", "110900.047500", "110901.537500", "110903.027500", "110904.517500", "110906.007500", "110907.497500", "110908.987500", "110910.477500", "110911.967500", "110913.457500", "110914.947500", "110916.437500", "110917.927500", "110919.417500", "110920.907500", "110922.397500", "110923.887500", "110925.377500", "110926.867500", "110928.357500", "110929.847500", "110931.337500", "110932.827500", "110934.317500", "110935.807500", "110937.297500", "110938.787500", "110940.277500", "110941.767500", "110943.257500", "110944.747500", "110946.237500", "110947.727500", "110949.217500", "110950.707500", "110952.197500", "110953.687500", "110955.177500", "110956.667500", "110958.157500", "110959.647500", "111001.137500", "111002.627500", "111004.117500", "111005.607500", "111007.097500", "111008.587500", "111010.077500", "111011.567500", "111013.057500", "111014.547500", "111016.037500", "111017.527500", "111019.017500", "111020.507500", "111021.997500", "111023.487500", "111024.977500", "111026.467500", "111027.957500", "111029.447500", "111030.937500", "111032.427500", "111033.917500", "111035.407500", "111036.897500", "111038.387500", "111039.877500", "111041.367500", "111042.857500", "111044.347500", "111045.837500", "111047.327500", "111048.817500", "111050.307500", "111051.797500", "111053.287500", "111054.777500", "111056.267500", "111057.757500", "111059.247500", "111100.737500", "111102.227500", "111103.717500", "111105.207500", "111106.697500", "111108.187500", "111109.677500", "111111.167500", "111112.657500", "111114.147500", "111115.637500", "111117.127500", "111118.617500", "111120.107500", "111121.597500", "111123.087500", "111124.577500", "111126.067500", "111127.557500", "111129.047500", "111130.537500", "111132.027500", "111133.517500", "111135.007500", "111136.497500", "111137.987500", "111139.477500", "111140.967500", "111142.457500", "111143.947500", "111145.437500", "111146.927500", "111148.417500", "111149.907500", "111151.397500", "111152.887500", "111154.377500", "111155.867500", "111157.357500", "111158.847500", "111200.337500", "111201.827500", "111203.317500", "111204.807500", "111206.297500", "111207.787500", "111209.277500", "111210.767500", "111212.257500", "111213.747500", "111215.237500", "111216.727500", "111218.217500", "111219.707500", "111221.197500", "111222.687500", "111224.177500", "111225.667500", "111227.157500", "111228.647500", "111230.137500", "111231.627500", "111233.117500", "111234.607500", "111236.097500", "111237.587500", "111239.077500", "111240.567500", "111242.057500", "111243.547500", "111245.037500", "111246.527500", "111248.017500", "111249.507500", "111250.997500", "111252.487500", "111253.977500", "111255.467500", "111256.957500", "111258.447500", "111259.937500", "111301.427500", "111302.917500", "111304.407500", "111305.897500", "111307.387500", "111308.877500", "111310.367500", "111311.857500", "111313.347500", "111314.837500", "111316.327500", "111317.817500", "111319.307500", "111320.797500", "111322.287500", "111323.777500", "111325.267500", "111326.757500", "111328.247500", "111329.737500", "111331.227500", "111332.717500", "111334.207500", "111335.697500", "111337.187500", "111338.677500", "111340.167500", "111341.657500", "111343.147500", "111344.637500", "111346.127500", "111347.617500", "111349.107500", "111350.597500", "111352.087500", "111353.577500", "111355.067500", "111356.557500", "111358.047500", "111359.537500", "111401.027500", "111402.517500", "111404.007500", "111405.497500", "111406.987500", "111408.477500", "111409.967500", "111411.457500", "111412.947500", "111414.437500", "111415.927500", "111417.417500", "111418.907500", "111420.397500", "111421.887500", "111423.377500", "111424.867500", "111426.357500", "111427.847500", "111429.337500", "111430.827500", "111432.317500", "111433.807500", "111435.297500", "111436.787500", "111438.277500", "111439.767500", "111441.257500", "111442.747500", "111444.237500", "111445.727500", "111447.217500", "111448.707500", "111450.197500", "111451.687500", "111453.177500", "111454.667500", "111456.157500", "111457.647500", "111459.137500", "111500.627500", "111502.117500", "111503.607500", "111505.097500", "111506.587500", "111508.077500", "111509.567500", "111511.057500", "111512.547500", "111514.037500", "111515.527500", "111517.017500", "111518.507500", "111519.997500", "111521.487500", "111522.977500", "111524.467500", "111525.957500", "111527.447500", "111528.937500", "111530.427500", "111531.917500", "111533.407500", "111534.897500", "111536.387500", "111537.877500", "111539.367500", "111540.857500", "111542.347500", "111543.837500", "111545.327500", "111546.817500", "111548.307500", "111549.797500", "111551.287500", "111552.777500", "111554.267500", "111555.757500", "111557.247500", "111558.737500", "111600.227500", "111601.717500", "111603.207500", "111604.697500", "111606.187500", "111607.677500", "111609.167500", "111610.657500", "111612.147500", "111613.637500", "111615.127500", "111616.617500", "111618.107500", "111619.597500", "111621.087500", "111622.577500", "111624.067500", "111625.557500", "111627.047500", "111628.537500", "111630.027500", "111631.517500", "111633.007500", "111634.497500", "111635.987500", "111637.477500", "111638.967500", "111640.457500", "111641.947500", "111643.437500", "111644.927500", "111646.417500", "111647.907500", "111649.397500", "111650.887500", "111652.377500", "111653.867500", "111655.357500", "111656.847500", "111658.337500", "111659.827500", "111701.317500", "111702.807500", "111704.297500", "111705.787500", "111707.277500", "111708.767500", "111710.257500", "111711.747500", "111713.237500", "111714.727500", "111716.217500", "111717.707500", "111719.197500", "111720.687500", "111722.177500", "111723.667500", "111725.157500", "111726.647500", "111728.137500", "111729.627500", "111731.117500", "111732.607500", "111734.097500", "111735.587500", "111737.077500", "111738.567500"],
      "ContentTime": ["110624.472000", "110624.476000", "110624.483000", "110624.486000", "110624.489000", "110624.492000", "110624.497000", "110624.500000", "110624.503000", "110624.506000", "110624.509000", "110624.512000", "110624.515000", "110624.518000", "110624.520000", "110624.523000", "110624.526000", "110624.529000", "110624.532000", "110624.535000", "110644.444000", "110644.449000", "110644.452000", "110644.455000", "110644.475000", "110644.477000", "110644.480000", "110644.483000", "110644.486000", "110644.489000", "110644.492000", "110644.495000", "110644.497000", "110644.500000", "110644.503000", "110644.506000", "110644.509000", "110644.512000", "110644.515000", "110644.518000", "110644.520000", "110704.444000", "110704.447000", "110704.450000", "110704.453000", "110704.456000", "110704.458000", "110704.461000", "110704.464000", "110704.467000", "110704.470000", "110704.473000", "110704.476000", "110704.479000", "110704.481000", "110704.484000", "110704.487000", "110704.490000", "110704.493000", "110704.496000", "110704.499000", "110724.444000", "110724.447000", "110724.450000", "110724.453000", "110724.456000", "110724.459000", "110724.462000", "110724.464000", "110724.467000", "110724.470000", "110724.473000", "110724.476000", "110724.479000", "110724.481000", "110724.484000", "110724.487000", "110724.490000", "110724.493000", "110724.496000", "110724.499000", "110744.444000", "110744.447000", "110744.450000", "110744.453000", "110744.455000", "110744.458000", "110744.461000", "110744.464000", "110744.467000", "110744.470000", "110744.473000", "110744.476000", "110744.479000", "110744.481000", "110744.484000", "110744.487000", "110744.490000", "110744.493000", "110744.496000", "110744.499000", "110824.444000", "110824.447000", "110824.450000", "110824.453000", "110824.456000", "110824.458000", "110824.461000", "110824.464000", "110824.467000", "110824.470000", "110824.473000", "110824.476000", "110824.479000", "110824.481000", "110824.484000", "110824.487000", "110824.490000", "110824.493000", "110824.496000", "110824.499000", "110824.501000", "110824.504000", "110824.507000", "110824.510000", "110824.513000", "110824.516000", "110824.519000", "110824.522000", "110904.444000", "110904.447000", "110904.450000", "110904.453000", "110904.456000", "110904.459000", "110904.461000", "110904.464000", "110904.467000", "110904.470000", "110904.473000", "110904.476000", "110904.479000", "110904.482000", "110904.485000", "110904.487000", "110904.490000", "110904.493000", "110904.496000", "110904.499000", "110904.502000", "110904.505000", "110904.508000", "110904.510000", "110904.520000", "110904.522000", "110904.525000", "110944.444000", "110944.447000", "110944.458000", "110944.461000", "110944.464000", "110944.467000", "110944.470000", "110944.473000", "110944.476000", "110944.479000", "110944.482000", "110944.485000", "110944.488000", "110944.491000", "110944.493000", "110944.496000", "110944.499000", "110944.502000", "110944.505000", "110944.508000", "110944.511000", "110944.514000", "110944.516000", "110944.519000", "110944.522000", "110944.525000", "110944.528000", "111024.444000", "111024.447000", "111024.450000", "111024.453000", "111024.456000", "111024.459000", "111024.462000", "111024.465000", "111024.467000", "111024.470000", "111024.473000", "111024.476000", "111024.479000", "111024.482000", "111024.485000", "111024.488000", "111024.491000", "111024.494000", "111024.497000", "111024.500000", "111024.502000", "111024.505000", "111024.508000", "111024.511000", "111024.514000", "111024.517000", "111024.520000", "111104.444000", "111104.447000", "111104.450000", "111104.453000", "111104.456000", "111104.459000", "111104.462000", "111104.464000", "111104.467000", "111104.470000", "111104.473000", "111104.476000", "111104.479000", "111104.482000", "111104.485000", "111104.488000", "111104.490000", "111104.493000", "111104.496000", "111104.499000", "111104.502000", "111104.505000", "111104.508000", "111104.511000", "111104.513000", "111104.516000", "111104.519000", "111144.444000", "111144.447000", "111144.450000", "111144.453000", "111144.456000", "111144.459000", "111144.462000", "111144.465000", "111144.468000", "111144.471000", "111144.474000", "111144.477000", "111144.480000", "111144.483000", "111144.486000", "111144.488000", "111144.492000", "111144.494000", "111144.497000", "111144.500000", "111144.503000", "111144.506000", "111144.509000", "111144.512000", "111144.515000", "111144.518000", "111144.521000", "111224.444000", "111224.447000", "111224.450000", "111224.453000", "111224.456000", "111224.459000", "111224.462000", "111224.464000", "111224.468000", "111224.471000", "111224.474000", "111224.477000", "111224.480000", "111224.483000", "111224.486000", "111224.489000", "111224.491000", "111224.494000", "111224.497000", "111224.500000", "111224.503000", "111224.506000", "111224.509000", "111224.511000", "111224.514000", "111224.517000", "111304.444000", "111304.447000", "111304.450000", "111304.453000", "111304.456000", "111304.459000", "111304.462000", "111304.465000", "111304.468000", "111304.471000", "111304.473000", "111304.476000", "111304.479000", "111304.482000", "111304.485000", "111304.488000", "111304.491000", "111304.494000", "111304.497000", "111304.499000", "111304.502000", "111304.505000", "111304.508000", "111304.511000", "111304.514000", "111304.517000", "111304.520000", "111344.444000", "111344.447000", "111344.450000", "111344.453000", "111344.456000", "111344.459000", "111344.462000", "111344.464000", "111344.467000", "111344.470000", "111344.473000", "111344.476000", "111344.479000", "111344.482000", "111344.485000", "111344.488000", "111344.491000", "111344.494000", "111344.496000", "111344.499000", "111344.502000", "111344.505000", "111344.508000", "111344.511000", "111344.514000", "111344.517000", "111344.520000", "111424.444000", "111424.447000", "111424.450000", "111424.454000", "111424.457000", "111424.461000", "111424.464000", "111424.467000", "111424.471000", "111424.474000", "111424.478000", "111424.481000", "111424.484000", "111424.486000", "111424.489000", "111424.492000", "111424.495000", "111424.498000", "111424.501000", "111424.504000", "111424.507000", "111424.510000", "111424.513000", "111424.522000", "111424.525000", "111424.527000", "111424.530000", "111444.444000", "111444.447000", "111444.450000", "111444.453000", "111444.456000", "111444.459000", "111444.462000", "111444.465000", "111444.467000", "111444.470000", "111444.473000", "111444.476000", "111444.479000", "111524.444000", "111524.447000", "111524.450000", "111524.453000", "111524.456000", "111524.459000", "111524.461000", "111524.475000", "111524.478000", "111524.480000", "111524.483000", "111524.486000", "111524.489000", "111524.492000", "111524.495000", "111524.498000", "111524.501000", "111524.504000", "111524.506000", "111524.509000", "111524.512000", "111524.515000", "111524.518000", "111524.521000", "111524.524000", "111524.527000", "111524.529000", "111604.444000", "111604.447000", "111604.450000", "111604.453000", "111604.456000", "111604.459000", "111604.462000", "111604.465000", "111604.468000", "111604.470000", "111604.473000", "111604.476000", "111604.479000", "111604.482000", "111604.485000", "111604.488000", "111604.491000", "111604.494000", "111604.497000", "111604.500000", "111604.502000", "111604.505000", "111604.508000", "111604.511000", "111604.514000", "111604.517000", "111604.520000", "111644.444000", "111644.447000", "111644.450000", "111644.453000", "111644.456000", "111644.459000", "111644.462000", "111644.465000", "111644.467000", "111644.470000", "111644.473000", "111644.476000", "111644.479000", "111644.482000", "111644.485000", "111644.488000", "111644.490000", "111644.493000", "111644.496000", "111644.499000", "111644.502000", "111644.505000", "111644.508000", "111644.511000", "111644.514000", "111644.516000", "111644.519000", "111724.444000", "111724.447000", "111724.450000", "111724.453000", "111724.456000", "111724.459000", "111724.462000", "111724.464000", "111724.467000", "111724.470000", "111724.473000", "111724.476000", "111724.479000", "111724.482000", "111724.485000", "111724.488000", "111724.491000", "111724.494000", "111724.496000", "111724.499000", "111724.502000", "111724.505000", "111724.508000", "111724.511000", "111724.514000", "111724.517000", "111724.520000", "111740.902000", "111740.905000", "111740.908000", "111740.911000", "111740.914000", "111740.916000", "111740.919000", "111740.922000", "111740.925000", "111740.928000", "111740.931000"],
