{
  "AcquisitionMatrixPE": 104,
  "AcquisitionNumber": 1,
  "AcquisitionTime": "15:44:0.775000",
  "BandwidthPerPixelPhaseEncode": 17.17,
  "BaseResolution": 104,
  "BodyPartExamined": "BRAIN",
  "CoilString": "HC1-7;NC1_2",
  "ConsistencyInfo": "N4_VE11C_LATEST_20160120",
  "ConversionSoftware": "dcm2niix",
  "ConversionSoftwareVersion": "v1.0.20190902",
  "DerivedVendorReportedEchoSpacing": 0.000560011,
  "DeviceSerialNumber": "167006",
  "DwellTime": 2.1e-06,
  "EchoTime": 0.037,
  "EchoTrainLength": 104,
  "EffectiveEchoSpacing": 0.000560011,
  "FlipAngle": 52,
  "ImageComments": "Unaliased_MB4_PE3_LB",
  "ImageOrientationPatientDICOM": [0.997916, -0.060562, 0.0222862, 0.0645323, 0.936591, -0.344431],
  "ImageType": [
    "ORIGINAL",
    "PRIMARY",
    "M",
    "MB",
    "ND",
    "MOSAIC"
],
  "ImagingFrequency": 123.259,
  "InPlanePhaseEncodingDirectionDICOM": "COL",
  "InstitutionAddress": "Chemin_Queen-Mary_4565_Montreal_District_CA_H3W_1W5",
  "InstitutionName": "IUGM",
  "InstitutionalDepartmentName": "Department",
  "MRAcquisitionType": "2D",
  "MagneticFieldStrength": 3,
  "Manufacturer": "Siemens",
  "ManufacturersModelName": "Prisma_fit",
  "Modality": "MR",
  "MultibandAccelerationFactor": 4,
  "PartialFourier": 1,
  "PatientPosition": "HFS",
  "PercentPhaseFOV": 100,
  "PhaseEncodingDirection": "j",
  "PhaseEncodingSteps": 104,
  "PhaseResolution": 1,
  "PixelBandwidth": 2290,
  "ProcedureStepDescription": "games_shinobi",
  "ProtocolName": "func_task-shinobi_run-2",
  "PulseSequenceDetails": "%CustomerSeq%_cmrr_mbep2d_bold",
  "ReceiveCoilActiveElements": "HC1-7;NC1,2",
  "ReceiveCoilName": "HeadNeck_64",
  "ReconMatrixPE": 104,
  "RepetitionTime": 1.49,
  "SAR": 0.031959,
  "ScanOptions": "FS",
  "ScanningSequence": "EP",
  "SequenceName": "epfid2d1_104",
  "SequenceVariant": "SK_SS",
  "SeriesDescription": "func_task-shinobi_run-2",
  "SeriesNumber": 15,
  "ShimSetting": [637, -7270, -8849, 589, 15, -281, 4, -16],
  "SliceThickness": 2,
  "SliceTiming": [0, 0.7825, 0.0975, 0.8825, 0.195, 0.98, 0.2925, 1.0775, 0.3925, 1.175, 0.49, 1.2725, 0.5875, 1.3725, 0.685, 0, 0.7825, 0.0975, 0.8825, 0.195, 0.98, 0.2925, 1.0775, 0.3925, 1.175, 0.49, 1.2725, 0.5875, 1.3725, 0.685, 0, 0.7825, 0.0975, 0.8825, 0.195, 0.98, 0.2925, 1.0775, 0.3925, 1.175, 0.49, 1.2725, 0.5875, 1.3725, 0.685, 0, 0.7825, 0.0975, 0.8825, 0.195, 0.98, 0.2925, 1.0775, 0.3925, 1.175, 0.49, 1.2725, 0.5875, 1.3725, 0.685],
  "SoftwareVersions": "syngo_MR_E11",
  "SpacingBetweenSlices": 2,
  "StationName": "MRC35049",
  "TaskName": "shinobi",
  "TotalReadoutTime": 0.0576811,
  "TxRefAmp": 222.1,
  "WipMemBlock": "9fdebb1d-14d4-44fa-85a3-f664cb2ff894||Sequence: R016 ve11c/master r/e634e98; Dec 19 2017 11:00:25 by eja",
  "dcmmeta_affine": [
    [-1.9958312511444092, 0.12906469404697418, 2.7191474146093242e-05, 99.8736343383789],
    [0.12112391740083694, 1.8731820583343506, -0.6903029680252075, -70.39319610595703],
    [0.044572338461875916, 0.6888624429702759, 1.8770939111709595, -70.6681137084961],
    [0.0, 0.0, 0.0, 1.0]
],
  "dcmmeta_reorient_transform": [
    [0.0, -1.0, 0.0, 103.0],
    [1.0, 0.0, 0.0, 0.0],
    [0.0, 0.0, 1.0, 0.0],
    [0.0, 0.0, 0.0, 1.0]
],
  "dcmmeta_shape": [104, 104, 60, 466],
  "dcmmeta_slice_dim": 2,
  "dcmmeta_version": 0.6,
  "global": {
    "const": {
      "AcquisitionMatrix": [104, 0, 0, 104],
      "AngioFlag": "N",
      "BitsAllocated": 16,
      "BitsStored": 16,
      "BodyPartExamined": "BRAIN",
      "Columns": 832,
      "EchoNumbers": 1,
      "EchoTime": 37.0,
      "EchoTrainLength": 104,
      "FlipAngle": 52.0,
      "HighBit": 15,
      "ImageOrientationPatient": [0.99791561560958, -0.0605619583595, 0.02228616885462, 0.06453234799469, 0.93659100320896, -0.3444312250223],
      "ImagePositionPatient": [-886.62941709113, -760.29369583235, 234.8063182012],
      "ImageType": [
        "ORIGINAL",
        "PRIMARY",
        "M",
        "MB",
        "ND",
        "MOSAIC"
],
      "ImagedNucleus": "1H",
      "ImagingFrequency": 123.259011,
      "InPlanePhaseEncodingDirection": "COL",
      "MRAcquisitionType": "2D",
      "MagneticFieldStrength": 3.0,
      "Manufacturer": "SIEMENS",
      "ManufacturerModelName": "Prisma_fit",
      "Modality": "MR",
      "NumberOfAverages": 1.0,
      "NumberOfPhaseEncodingSteps": 104,
      "PercentPhaseFieldOfView": 100.0,
      "PercentSampling": 100.0,
      "PerformedProcedureStepStartTime": "150721.458000",
      "PhotometricInterpretation": "MONOCHROME2",
      "PixelBandwidth": 2290.0,
      "PixelRepresentation": 0,
      "PixelSpacing": [2.0, 2.0],
      "ProtocolName": "func_task-shinobi_run-2",
      "RepetitionTime": 1490.0,
      "Rows": 832,
      "SAR": 0.03195898052616,
      "SamplesPerPixel": 1,
      "ScanOptions": "FS",
      "ScanningSequence": "EP",
      "SequenceName": "epfid2d1_104",
      "SequenceVariant": [
        "SK",
        "SS"
],
      "SeriesDescription": "func_task-shinobi_run-2",
      "SeriesNumber": 15,
      "SeriesTime": "154517.529000",
      "SliceLocation": -42.027673639849,
      "SliceThickness": 2.0,
      "SmallestImagePixelValue": 0,
      "SoftwareVersions": "syngo MR E11",
      "SpacingBetweenSlices": 1.9999999706644,
      "SpecificCharacterSet": "ISO_IR 100",
      "StudyID": "1",
      "StudyTime": "150721.387000",
      "TransmitCoilName": "Body",
      "VariableFlipAngleFlag": "N",
      "WindowCenterWidthExplanation": "Algo1",
      "dBdt": 0.0},
    "slices": {}
  },
  "time": {
    "samples": {
      "AcquisitionNumber": [1, 2, 3, 4, 5, 6, 7, 8, 9, 10, 11, 12, 13, 14, 15, 16, 17, 18, 19, 20, 21, 22, 23, 24, 25, 26, 27, 28, 29, 30, 31, 32, 33, 34, 35, 36, 37, 38, 39, 40, 41, 42, 43, 44, 45, 46, 47, 48, 49, 50, 51, 52, 53, 54, 55, 56, 57, 58, 59, 60, 61, 62, 63, 64, 65, 66, 67, 68, 69, 70, 71, 72, 73, 74, 75, 76, 77, 78, 79, 80, 81, 82, 83, 84, 85, 86, 87, 88, 89, 90, 91, 92, 93, 94, 95, 96, 97, 98, 99, 100, 101, 102, 103, 104, 105, 106, 107, 108, 109, 110, 111, 112, 113, 114, 115, 116, 117, 118, 119, 120, 121, 122, 123, 124, 125, 126, 127, 128, 129, 130, 131, 132, 133, 134, 135, 136, 137, 138, 139, 140, 141, 142, 143, 144, 145, 146, 147, 148, 149, 150, 151, 152, 153, 154, 155, 156, 157, 158, 159, 160, 161, 162, 163, 164, 165, 166, 167, 168, 169, 170, 171, 172, 173, 174, 175, 176, 177, 178, 179, 180, 181, 182, 183, 184, 185, 186, 187, 188, 189, 190, 191, 192, 193, 194, 195, 196, 197, 198, 199, 200, 201, 202, 203, 204, 205, 206, 207, 208, 209, 210, 211, 212, 213, 214, 215, 216, 217, 218, 219, 220, 221, 222, 223, 224, 225, 226, 227, 228, 229, 230, 231, 232, 233, 234, 235, 236, 237, 238, 239, 240, 241, 242, 243, 244, 245, 246, 247, 248, 249, 250, 251, 252, 253, 254, 255, 256, 257, 258, 259, 260, 261, 262, 263, 264, 265, 266, 267, 268, 269, 270, 271, 272, 273, 274, 275, 276, 277, 278, 279, 280, 281, 282, 283, 284, 285, 286, 287, 288, 289, 290, 291, 292, 293, 294, 295, 296, 297, 298, 299, 300, 301, 302, 303, 304, 305, 306, 307, 308, 309, 310, 311, 312, 313, 314, 315, 316, 317, 318, 319, 320, 321, 322, 323, 324, 325, 326, 327, 328, 329, 330, 331, 332, 333, 334, 335, 336, 337, 338, 339, 340, 341, 342, 343, 344, 345, 346, 347, 348, 349, 350, 351, 352, 353, 354, 355, 356, 357, 358, 359, 360, 361, 362, 363, 364, 365, 366, 367, 368, 369, 370, 371, 372, 373, 374, 375, 376, 377, 378, 379, 380, 381, 382, 383, 384, 385, 386, 387, 388, 389, 390, 391, 392, 393, 394, 395, 396, 397, 398, 399, 400, 401, 402, 403, 404, 405, 406, 407, 408, 409, 410, 411, 412, 413, 414, 415, 416, 417, 418, 419, 420, 421, 422, 423, 424, 425, 426, 427, 428, 429, 430, 431, 432, 433, 434, 435, 436, 437, 438, 439, 440, 441, 442, 443, 444, 445, 446, 447, 448, 449, 450, 451, 452, 453, 454, 455, 456, 457, 458, 459, 460, 461, 462, 463, 464, 465, 466],
      "AcquisitionTime": ["154400.775000", "154402.265000", "154403.755000", "154405.245000", "154406.735000", "154408.225000", "154409.715000", "154411.205000", "154412.695000", "154414.185000", "154415.675000", "154417.165000", "154418.655000", "154420.145000", "154421.635000", "154423.125000", "154424.615000", "154426.105000", "154427.595000", "154429.085000", "154430.575000", "154432.065000", "154433.555000", "154435.045000", "154436.535000", "154438.025000", "154439.515000", "154441.005000", "154442.495000", "154443.985000", "154445.475000", "154446.965000", "154448.455000", "154449.945000", "154451.435000", "154452.925000", "154454.415000", "154455.905000", "154457.395000", "154458.885000", "154500.375000", "154501.865000", "154503.355000", "154504.845000", "154506.335000", "154507.825000", "154509.315000", "154510.805000", "154512.295000", "154513.785000", "154515.275000", "154516.765000", "154518.255000", "154519.745000", "154521.235000", "154522.725000", "154524.215000", "154525.705000", "154527.195000", "154528.685000", "154530.175000", "154531.665000", "154533.155000", "154534.645000", "154536.135000", "154537.625000", "154539.115000", "154540.605000", "154542.095000", "154543.585000", "154545.075000", "154546.565000", "154548.055000", "154549.545000", "154551.035000", "154552.525000", "154554.015000", "154555.505000", "154556.995000", "154558.485000", "154559.975000", "154601.465000", "154602.955000", "154604.445000", "154605.935000", "154607.425000", "154608.915000", "154610.405000", "154611.895000", "154613.385000", "154614.875000", "154616.365000", "154617.855000", "154619.345000", "154620.835000", "154622.325000", "154623.815000", "154625.305000", "154626.795000", "154628.285000", "154629.775000", "154631.265000", "154632.755000", "154634.245000", "154635.735000", "154637.225000", "154638.715000", "154640.205000", "154641.695000", "154643.185000", "154644.675000", "154646.165000", "154647.655000", "154649.145000", "154650.635000", "154652.125000", "154653.615000", "154655.105000", "154656.595000", "154658.085000", "154659.575000", "154701.065000", "154702.555000", "154704.045000", "154705.535000", "154707.025000", "154708.515000", "154710.005000", "154711.495000", "154712.985000", "154714.475000", "154715.965000", "154717.455000", "154718.945000", "154720.435000", "154721.925000", "154723.415000", "154724.905000", "154726.395000", "154727.885000", "154729.375000", "154730.865000", "154732.355000", "154733.845000", "154735.335000", "154736.825000", "154738.315000", "154739.805000", "154741.295000", "154742.785000", "154744.275000", "154745.765000", "154747.255000", "154748.745000", "154750.235000", "154751.725000", "154753.215000", "154754.705000", "154756.195000", "154757.685000", "154759.175000", "154800.665000", "154802.155000", "154803.645000", "154805.135000", "154806.625000", "154808.115000", "154809.605000", "154811.095000", "154812.585000", "154814.075000", "154815.565000", "154817.055000", "154818.545000", "154820.035000", "154821.525000", "154823.015000", "154824.505000", "154825.995000", "154827.485000", "154828.975000", "154830.465000", "154831.955000", "154833.445000", "154834.935000", "154836.425000", "154837.915000", "154839.405000", "154840.895000", "154842.385000", "154843.875000", "154845.365000", "154846.855000", "154848.345000", "154849.835000", "154851.325000", "154852.815000", "154854.305000", "154855.795000", "154857.285000", "154858.775000", "154900.265000", "154901.755000", "154903.245000", "154904.735000", "154906.225000", "154907.715000", "154909.205000", "154910.695000", "154912.185000", "154913.675000", "154915.165000", "154916.655000", "154918.145000", "154919.635000", "154921.125000", "154922.615000", "154924.105000", "154925.595000", "154927.085000", "154928.575000", "154930.065000", "154931.555000", "154933.045000", "154934.535000", "154936.025000", "154937.515000", "154939.005000", "154940.495000", "154941.985000", "154943.475000", "154944.965000", "154946.455000", "154947.945000", "154949.435000", "154950.925000", "154952.415000", "154953.905000", "154955.395000", "154956.885000", "154958.375000", "154959.865000", "155001.355000", "155002.845000", "155004.335000", "155005.825000", "155007.315000", "155008.805000", "155010.295000", "155011.785000", "155013.275000", "155014.765000", "155016.255000", "155017.745000", "155019.235000", "155020.725000", "155022.215000", "155023.705000", "155025.195000", "155026.685000", "155028.175000", "155029.665000", "155031.155000", "155032.645000", "155034.135000", "155035.625000", "155037.115000", "155038.605000", "155040.095000", "155041.585000", "155043.075000", "155044.565000", "155046.055000", "155047.545000", "155049.035000", "155050.525000", "155052.015000", "155053.505000", "155054.995000", "155056.485000", "155057.975000", "155059.465000", "155100.955000", "155102.445000", "155103.935000", "155105.425000", "155106.915000", "155108.405000", "155109.895000", "155111.385000", "155112.875000", "155114.365000", "155115.855000", "155117.345000", "155118.835000", "155120.325000", "155121.815000", "155123.305000", "155124.795000", "155126.285000", "155127.775000", "155129.265000", "155130.755000", "155132.245000", "155133.735000", "155135.225000", "155136.715000", "155138.205000", "155139.695000", "155141.185000", "155142.675000", "155144.165000", "155145.655000", "155147.145000", "155148.635000", "155150.125000", "155151.615000", "155153.105000", "155154.595000", "155156.085000", "155157.575000", "155159.065000", "155200.555000", "155202.045000", "155203.535000", "155205.025000", "155206.515000", "155208.005000", "155209.495000", "155210.985000", "155212.475000", "155213.965000", "155215.455000", "155216.945000", "155218.435000", "155219.925000", "155221.415000", "155222.905000", "155224.395000", "155225.885000", "155227.375000", "155228.865000", "155230.355000", "155231.845000", "155233.335000", "155234.825000", "155236.315000", "155237.805000", "155239.295000", "155240.785000", "155242.275000", "155243.765000", "155245.255000", "155246.745000", "155248.235000", "155249.725000", "155251.215000", "155252.705000", "155254.195000", "155255.685000", "155257.175000", "155258.665000", "155300.155000", "155301.645000", "155303.135000", "155304.625000", "155306.115000", "155307.605000", "155309.095000", "155310.585000", "155312.075000", "155313.565000", "155315.055000", "155316.545000", "155318.035000", "155319.525000", "155321.015000", "155322.505000", "155323.995000", "155325.485000", "155326.975000", "155328.465000", "155329.955000", "155331.445000", "155332.935000", "155334.425000", "155335.915000", "155337.405000", "155338.895000", "155340.385000", "155341.875000", "155343.365000", "155344.855000", "155346.345000", "155347.835000", "155349.325000", "155350.815000", "155352.305000", "155353.795000", "155355.285000", "155356.775000", "155358.265000", "155359.755000", "155401.245000", "155402.735000", "155404.225000", "155405.715000", "155407.205000", "155408.695000", "155410.185000", "155411.675000", "155413.165000", "155414.655000", "155416.145000", "155417.635000", "155419.125000", "155420.615000", "155422.105000", "155423.595000", "155425.085000", "155426.575000", "155428.065000", "155429.555000", "155431.045000", "155432.535000", "155434.025000", "155435.515000", "155437.005000", "155438.495000", "155439.985000", "155441.475000", "155442.965000", "155444.455000", "155445.945000", "155447.435000", "155448.925000", "155450.415000", "155451.905000", "155453.395000", "155454.885000", "155456.375000", "155457.865000", "155459.355000", "155500.845000", "155502.335000", "155503.825000", "155505.315000", "155506.805000", "155508.295000", "155509.785000", "155511.275000", "155512.765000", "155514.255000", "155515.745000", "155517.235000", "155518.725000", "155520.215000", "155521.705000", "155523.195000", "155524.685000", "155526.175000", "155527.665000", "155529.155000", "155530.645000", "155532.135000", "155533.625000"],
      "ContentTime": ["154517.532000", "154517.535000", "154517.545000", "154517.547000", "154517.550000", "154517.553000", "154517.556000", "154517.563000", "154517.565000", "154517.568000", "154517.571000", "154517.574000", "154517.584000", "154517.586000", "154517.589000", "154517.592000", "154517.595000", "154517.598000", "154517.601000", "154517.604000", "154517.607000", "154517.609000", "154517.612000", "154517.615000", "154537.503000", "154537.518000", "154537.521000", "154537.523000", "154537.532000", "154537.535000", "154537.538000", "154537.541000", "154537.543000", "154537.546000", "154537.549000", "154537.552000", "154537.555000", "154537.558000", "154537.561000", "154537.564000", "154537.567000", "154537.570000", "154537.572000", "154537.575000", "154557.502000", "154557.505000", "154557.508000", "154557.511000", "154557.514000", "154557.517000", "154557.520000", "154557.523000", "154557.526000", "154557.529000", "154557.532000", "154557.535000", "154557.538000", "154557.540000", "154557.551000", "154557.554000", "154557.557000", "154557.560000", "154557.563000", "154557.566000", "154617.502000", "154617.505000", "154617.508000", "154617.511000", "154617.513000", "154617.516000", "154617.519000", "154617.522000", "154617.525000", "154617.528000", "154617.531000", "154617.534000", "154617.536000", "154617.539000", "154617.542000", "154617.545000", "154617.548000", "154617.551000", "154617.554000", "154617.556000", "154637.502000", "154637.505000", "154637.508000", "154637.511000", "154637.513000", "154637.516000", "154637.519000", "154637.522000", "154637.525000", "154637.528000", "154637.531000", "154637.534000", "154637.536000", "154637.539000", "154637.542000", "154637.545000", "154637.548000", "154637.551000", "154637.554000", "154637.556000", "154717.503000", "154717.506000", "154717.509000", "154717.512000", "154717.515000", "154717.517000", "154717.520000", "154717.523000", "154717.526000", "154717.529000", "154717.532000", "154717.534000", "154717.537000", "154717.540000", "154717.543000", "154717.546000", "154717.549000", "154717.557000", "154717.560000", "154717.563000", "154717.566000", "154717.569000", "154717.572000", "154717.575000", "154717.577000", "154717.580000", "154717.583000", "154757.503000", "154757.506000", "154757.509000", "154757.512000", "154757.515000", "154757.518000", "154757.521000", "154757.523000", "154757.526000", "154757.529000", "154757.532000", "154757.535000", "154757.538000", "154757.540000", "154757.543000", "154757.546000", "154757.549000", "154757.552000", "154757.555000", "154757.558000", "154757.561000", "154757.564000", "154757.567000", "154757.570000", "154757.573000", "154757.575000", "154757.578000", "154837.503000", "154837.507000", "154837.510000", "154837.513000", "154837.516000", "154837.519000", "154837.522000", "154837.525000", "154837.528000", "154837.531000", "154837.534000", "154837.537000", "154837.539000", "154837.542000", "154837.545000", "154837.548000", "154837.551000", "154837.554000", "154837.557000", "154837.560000", "154837.563000", "154837.566000", "154837.569000", "154837.571000", "154837.583000", "154837.586000", "154917.502000", "154917.505000", "154917.508000", "154917.511000", "154917.514000", "154917.517000", "154917.519000", "154917.522000", "154917.525000", "154917.528000", "154917.531000", "154917.534000", "154917.537000", "154917.539000", "154917.542000", "154917.552000", "154917.555000", "154917.558000", "154917.561000", "154917.564000", "154917.567000", "154917.570000", "154917.573000", "154917.576000", "154917.579000", "154917.581000", "154917.584000", "154957.503000", "154957.506000", "154957.509000", "154957.512000", "154957.515000", "154957.517000", "154957.520000", "154957.523000", "154957.526000", "154957.529000", "154957.532000", "154957.535000", "154957.538000", "154957.540000", "154957.543000", "154957.546000", "154957.566000", "154957.569000", "154957.572000", "154957.575000", "154957.578000", "154957.581000", "154957.584000", "154957.586000", "154957.589000", "154957.592000", "154957.595000", "155037.502000", "155037.505000", "155037.508000", "155037.511000", "155037.514000", "155037.517000", "155037.520000", "155037.522000", "155037.525000", "155037.528000", "155037.531000", "155037.534000", "155037.537000", "155037.540000", "155037.543000", "155037.546000", "155037.549000", "155037.551000", "155037.554000", "155037.557000", "155037.560000", "155037.563000", "155037.566000", "155037.569000", "155037.572000", "155037.575000", "155037.578000", "155117.502000", "155117.505000", "155117.508000", "155117.511000", "155117.514000", "155117.517000", "155117.519000", "155117.522000", "155117.525000", "155117.528000", "155117.531000", "155117.534000", "155117.537000", "155117.540000", "155117.543000", "155117.545000", "155117.549000", "155117.551000", "155117.554000", "155117.557000", "155117.560000", "155117.563000", "155117.566000", "155117.569000", "155117.572000", "155117.575000", "155117.578000", "155157.503000", "155157.506000", "155157.509000", "155157.512000", "155157.515000", "155157.518000", "155157.520000", "155157.523000", "155157.535000", "155157.538000", "155157.540000", "155157.543000", "155157.546000", "155157.549000", "155157.552000", "155157.555000", "155157.558000", "155157.561000", "155157.564000", "155157.567000", "155157.570000", "155157.573000", "155157.576000", "155157.578000", "155157.581000", "155157.584000", "155157.587000", "155237.503000", "155237.506000", "155237.509000", "155237.512000", "155237.515000", "155237.518000", "155237.521000", "155237.523000", "155237.526000", "155237.529000", "155237.532000", "155237.535000", "155237.538000", "155237.541000", "155237.544000", "155237.546000", "155237.549000", "155237.552000", "155237.555000", "155237.558000", "155237.561000", "155237.564000", "155237.567000", "155237.570000", "155237.573000", "155237.576000", "155237.578000", "155317.502000", "155317.505000", "155317.508000", "155317.511000", "155317.514000", "155317.517000", "155317.520000", "155317.523000", "155317.526000", "155317.528000", "155317.531000", "155317.534000", "155317.537000", "155317.540000", "155317.543000", "155317.546000", "155317.549000", "155317.552000", "155317.555000", "155317.558000", "155317.560000", "155317.563000", "155317.566000", "155317.569000", "155317.572000", "155317.575000", "155357.502000", "155357.505000", "155357.508000", "155357.511000", "155357.514000", "155357.516000", "155357.519000", "155357.522000", "155357.525000", "155357.528000", "155357.531000", "155357.534000", "155357.537000", "155357.540000", "155357.543000", "155357.546000", "155357.549000", "155357.551000", "155357.554000", "155357.557000", "155357.560000", "155357.563000", "155357.566000", "155357.569000", "155357.572000", "155357.575000", "155357.577000", "155437.503000", "155437.506000", "155437.509000", "155437.512000", "155437.515000", "155437.518000", "155437.521000", "155437.524000", "155437.527000", "155437.530000", "155437.533000", "155437.536000", "155437.539000", "155437.542000", "155437.544000", "155437.547000", "155437.560000", "155437.563000", "155437.566000", "155437.569000", "155437.572000", "155437.575000", "155437.578000", "155437.581000", "155437.584000", "155437.586000", "155437.589000", "155517.502000", "155517.505000", "155517.508000", "155517.511000", "155517.514000", "155517.517000", "155517.519000", "155517.522000", "155517.525000", "155517.528000", "155517.531000", "155517.534000", "155517.537000", "155517.540000", "155517.543000", "155517.546000", "155517.549000", "155517.551000", "155517.554000", "155517.557000", "155517.560000", "155517.563000", "155517.566000", "155517.569000", "155517.572000", "155517.575000", "155517.578000", "155536.518000", "155536.522000", "155536.525000", "155536.528000", "155536.531000", "155536.534000", "155536.537000", "155536.540000", "155536.543000", "155536.546000", "155536.549000", "155536.552000", "155536.555000"],
