{
  "AcquisitionMatrixPE": 104,
  "AcquisitionNumber": 1,
  "AcquisitionTime": "15:55:58.400000",
  "BandwidthPerPixelPhaseEncode": 17.17,
  "BaseResolution": 104,
  "BodyPartExamined": "BRAIN",
  "CoilString": "HC1-7;NC1_2",
  "ConsistencyInfo": "N4_VE11C_LATEST_20160120",
  "ConversionSoftware": "dcm2niix",
  "ConversionSoftwareVersion": "v1.0.20190902",
  "DerivedVendorReportedEchoSpacing": 0.000560011,
  "DeviceSerialNumber": "167006",
  "DwellTime": 2.1e-06,
  "EchoTime": 0.037,
  "EchoTrainLength": 104,
  "EffectiveEchoSpacing": 0.000560011,
  "FlipAngle": 52,
  "ImageComments": "Unaliased_MB4_PE3_LB",
  "ImageOrientationPatientDICOM": [0.997916, -0.060562, 0.0222862, 0.0645323, 0.936591, -0.344431],
  "ImageType": [
    "ORIGINAL",
    "PRIMARY",
    "M",
    "MB",
    "ND",
    "MOSAIC"
],
  "ImagingFrequency": 123.259,
  "InPlanePhaseEncodingDirectionDICOM": "COL",
  "InstitutionAddress": "Chemin_Queen-Mary_4565_Montreal_District_CA_H3W_1W5",
  "InstitutionName": "IUGM",
  "InstitutionalDepartmentName": "Department",
  "MRAcquisitionType": "2D",
  "MagneticFieldStrength": 3,
  "Manufacturer": "Siemens",
  "ManufacturersModelName": "Prisma_fit",
  "Modality": "MR",
  "MultibandAccelerationFactor": 4,
  "PartialFourier": 1,
  "PatientPosition": "HFS",
  "PercentPhaseFOV": 100,
  "PhaseEncodingDirection": "j",
  "PhaseEncodingSteps": 104,
  "PhaseResolution": 1,
  "PixelBandwidth": 2290,
  "ProcedureStepDescription": "games_shinobi",
  "ProtocolName": "func_task-shinobi_run-3",
  "PulseSequenceDetails": "%CustomerSeq%_cmrr_mbep2d_bold",
  "ReceiveCoilActiveElements": "HC1-7;NC1,2",
  "ReceiveCoilName": "HeadNeck_64",
  "ReconMatrixPE": 104,
  "RepetitionTime": 1.49,
  "SAR": 0.031959,
  "ScanOptions": "FS",
  "ScanningSequence": "EP",
  "SequenceName": "epfid2d1_104",
  "SequenceVariant": "SK_SS",
  "SeriesDescription": "func_task-shinobi_run-3",
  "SeriesNumber": 17,
  "ShimSetting": [637, -7270, -8849, 589, 15, -281, 4, -16],
  "SliceThickness": 2,
  "SliceTiming": [0, 0.7825, 0.0975, 0.88, 0.195, 0.98, 0.2925, 1.0775, 0.39, 1.175, 0.49, 1.2725, 0.5875, 1.37, 0.685, 0, 0.7825, 0.0975, 0.88, 0.195, 0.98, 0.2925, 1.0775, 0.39, 1.175, 0.49, 1.2725, 0.5875, 1.37, 0.685, 0, 0.7825, 0.0975, 0.88, 0.195, 0.98, 0.2925, 1.0775, 0.39, 1.175, 0.49, 1.2725, 0.5875, 1.37, 0.685, 0, 0.7825, 0.0975, 0.88, 0.195, 0.98, 0.2925, 1.0775, 0.39, 1.175, 0.49, 1.2725, 0.5875, 1.37, 0.685],
  "SoftwareVersions": "syngo_MR_E11",
  "SpacingBetweenSlices": 2,
  "StationName": "MRC35049",
  "TaskName": "shinobi",
  "TotalReadoutTime": 0.0576811,
  "TxRefAmp": 222.1,
  "WipMemBlock": "e3961dc3-b6cf-47e6-8d73-cafea20c9c60||Sequence: R016 ve11c/master r/e634e98; Dec 19 2017 11:00:25 by eja",
  "dcmmeta_affine": [
    [-1.9958312511444092, 0.12906469404697418, 2.7191474146093242e-05, 99.8736343383789],
    [0.12112391740083694, 1.8731820583343506, -0.6903029680252075, -70.39319610595703],
    [0.044572338461875916, 0.6888624429702759, 1.8770939111709595, -70.6681137084961],
    [0.0, 0.0, 0.0, 1.0]
],
  "dcmmeta_reorient_transform": [
    [0.0, -1.0, 0.0, 103.0],
    [1.0, 0.0, 0.0, 0.0],
    [0.0, 0.0, 1.0, 0.0],
    [0.0, 0.0, 0.0, 1.0]
],
  "dcmmeta_shape": [104, 104, 60, 527],
  "dcmmeta_slice_dim": 2,
  "dcmmeta_version": 0.6,
  "global": {
    "const": {
      "AcquisitionMatrix": [104, 0, 0, 104],
      "AngioFlag": "N",
      "BitsAllocated": 16,
      "BitsStored": 16,
      "BodyPartExamined": "BRAIN",
      "Columns": 832,
      "EchoNumbers": 1,
      "EchoTime": 37.0,
      "EchoTrainLength": 104,
      "FlipAngle": 52.0,
      "HighBit": 15,
      "ImageOrientationPatient": [0.99791561560958, -0.0605619583595, 0.02228616885462, 0.06453234799469, 0.93659100320896, -0.3444312250223],
      "ImagePositionPatient": [-886.62941709113, -760.29369583235, 234.8063182012],
      "ImageType": [
        "ORIGINAL",
        "PRIMARY",
        "M",
        "MB",
        "ND",
        "MOSAIC"
],
      "ImagedNucleus": "1H",
      "ImagingFrequency": 123.259017,
      "InPlanePhaseEncodingDirection": "COL",
      "MRAcquisitionType": "2D",
      "MagneticFieldStrength": 3.0,
      "Manufacturer": "SIEMENS",
      "ManufacturerModelName": "Prisma_fit",
      "Modality": "MR",
      "NumberOfAverages": 1.0,
      "NumberOfPhaseEncodingSteps": 104,
      "PercentPhaseFieldOfView": 100.0,
      "PercentSampling": 100.0,
      "PerformedProcedureStepStartTime": "150721.458000",
      "PhotometricInterpretation": "MONOCHROME2",
      "PixelBandwidth": 2290.0,
      "PixelRepresentation": 0,
      "PixelSpacing": [2.0, 2.0],
      "ProtocolName": "func_task-shinobi_run-3",
      "RepetitionTime": 1490.0,
      "Rows": 832,
      "SAR": 0.03195898052616,
      "SamplesPerPixel": 1,
      "ScanOptions": "FS",
      "ScanningSequence": "EP",
      "SequenceName": "epfid2d1_104",
      "SequenceVariant": [
        "SK",
        "SS"
],
      "SeriesDescription": "func_task-shinobi_run-3",
      "SeriesNumber": 17,
      "SeriesTime": "155724.033000",
      "SliceLocation": -42.027673639849,
      "SliceThickness": 2.0,
      "SmallestImagePixelValue": 0,
      "SoftwareVersions": "syngo MR E11",
      "SpacingBetweenSlices": 1.9999999706644,
      "SpecificCharacterSet": "ISO_IR 100",
      "StudyID": "1",
      "StudyTime": "150721.387000",
      "TransmitCoilName": "Body",
      "VariableFlipAngleFlag": "N",
      "WindowCenterWidthExplanation": "Algo1",
      "dBdt": 0.0},
    "slices": {}
  },
  "time": {
    "samples": {
      "AcquisitionNumber": [1, 2, 3, 4, 5, 6, 7, 8, 9, 10, 11, 12, 13, 14, 15, 16, 17, 18, 19, 20, 21, 22, 23, 24, 25, 26, 27, 28, 29, 30, 31, 32, 33, 34, 35, 36, 37, 38, 39, 40, 41, 42, 43, 44, 45, 46, 47, 48, 49, 50, 51, 52, 53, 54, 55, 56, 57, 58, 59, 60, 61, 62, 63, 64, 65, 66, 67, 68, 69, 70, 71, 72, 73, 74, 75, 76, 77, 78, 79, 80, 81, 82, 83, 84, 85, 86, 87, 88, 89, 90, 91, 92, 93, 94, 95, 96, 97, 98, 99, 100, 101, 102, 103, 104, 105, 106, 107, 108, 109, 110, 111, 112, 113, 114, 115, 116, 117, 118, 119, 120, 121, 122, 123, 124, 125, 126, 127, 128, 129, 130, 131, 132, 133, 134, 135, 136, 137, 138, 139, 140, 141, 142, 143, 144, 145, 146, 147, 148, 149, 150, 151, 152, 153, 154, 155, 156, 157, 158, 159, 160, 161, 162, 163, 164, 165, 166, 167, 168, 169, 170, 171, 172, 173, 174, 175, 176, 177, 178, 179, 180, 181, 182, 183, 184, 185, 186, 187, 188, 189, 190, 191, 192, 193, 194, 195, 196, 197, 198, 199, 200, 201, 202, 203, 204, 205, 206, 207, 208, 209, 210, 211, 212, 213, 214, 215, 216, 217, 218, 219, 220, 221, 222, 223, 224, 225, 226, 227, 228, 229, 230, 231, 232, 233, 234, 235, 236, 237, 238, 239, 240, 241, 242, 243, 244, 245, 246, 247, 248, 249, 250, 251, 252, 253, 254, 255, 256, 257, 258, 259, 260, 261, 262, 263, 264, 265, 266, 267, 268, 269, 270, 271, 272, 273, 274, 275, 276, 277, 278, 279, 280, 281, 282, 283, 284, 285, 286, 287, 288, 289, 290, 291, 292, 293, 294, 295, 296, 297, 298, 299, 300, 301, 302, 303, 304, 305, 306, 307, 308, 309, 310, 311, 312, 313, 314, 315, 316, 317, 318, 319, 320, 321, 322, 323, 324, 325, 326, 327, 328, 329, 330, 331, 332, 333, 334, 335, 336, 337, 338, 339, 340, 341, 342, 343, 344, 345, 346, 347, 348, 349, 350, 351, 352, 353, 354, 355, 356, 357, 358, 359, 360, 361, 362, 363, 364, 365, 366, 367, 368, 369, 370, 371, 372, 373, 374, 375, 376, 377, 378, 379, 380, 381, 382, 383, 384, 385, 386, 387, 388, 389, 390, 391, 392, 393, 394, 395, 396, 397, 398, 399, 400, 401, 402, 403, 404, 405, 406, 407, 408, 409, 410, 411, 412, 413, 414, 415, 416, 417, 418, 419, 420, 421, 422, 423, 424, 425, 426, 427, 428, 429, 430, 431, 432, 433, 434, 435, 436, 437, 438, 439, 440, 441, 442, 443, 444, 445, 446, 447, 448, 449, 450, 451, 452, 453, 454, 455, 456, 457, 458, 459, 460, 461, 462, 463, 464, 465, 466, 467, 468, 469, 470, 471, 472, 473, 474, 475, 476, 477, 478, 479, 480, 481, 482, 483, 484, 485, 486, 487, 488, 489, 490, 491, 492, 493, 494, 495, 496, 497, 498, 499, 500, 501, 502, 503, 504, 505, 506, 507, 508, 509, 510, 511, 512, 513, 514, 515, 516, 517, 518, 519, 520, 521, 522, 523, 524, 525, 526, 527],
      "AcquisitionTime": ["155558.400000", "155559.890000", "155601.380000", "155602.870000", "155604.360000", "155605.850000", "155607.340000", "155608.830000", "155610.320000", "155611.810000", "155613.300000", "155614.790000", "155616.280000", "155617.770000", "155619.260000", "155620.750000", "155622.240000", "155623.730000", "155625.220000", "155626.710000", "155628.200000", "155629.690000", "155631.180000", "155632.670000", "155634.160000", "155635.650000", "155637.140000", "155638.630000", "155640.120000", "155641.610000", "155643.100000", "155644.590000", "155646.080000", "155647.570000", "155649.060000", "155650.550000", "155652.040000", "155653.530000", "155655.020000", "155656.510000", "155658.000000", "155659.490000", "155700.980000", "155702.470000", "155703.960000", "155705.450000", "155706.940000", "155708.430000", "155709.920000", "155711.410000", "155712.900000", "155714.390000", "155715.880000", "155717.370000", "155718.860000", "155720.350000", "155721.840000", "155723.330000", "155724.820000", "155726.310000", "155727.800000", "155729.290000", "155730.780000", "155732.270000", "155733.760000", "155735.250000", "155736.740000", "155738.230000", "155739.720000", "155741.210000", "155742.700000", "155744.190000", "155745.680000", "155747.170000", "155748.660000", "155750.150000", "155751.640000", "155753.130000", "155754.620000", "155756.110000", "155757.600000", "155759.090000", "155800.580000", "155802.070000", "155803.560000", "155805.050000", "155806.540000", "155808.030000", "155809.520000", "155811.010000", "155812.500000", "155813.990000", "155815.480000", "155816.970000", "155818.460000", "155819.950000", "155821.440000", "155822.930000", "155824.420000", "155825.910000", "155827.400000", "155828.890000", "155830.380000", "155831.870000", "155833.360000", "155834.850000", "155836.340000", "155837.830000", "155839.320000", "155840.810000", "155842.300000", "155843.790000", "155845.280000", "155846.770000", "155848.260000", "155849.750000", "155851.240000", "155852.730000", "155854.220000", "155855.710000", "155857.200000", "155858.690000", "155900.180000", "155901.670000", "155903.160000", "155904.650000", "155906.140000", "155907.630000", "155909.120000", "155910.610000", "155912.100000", "155913.590000", "155915.080000", "155916.570000", "155918.060000", "155919.550000", "155921.040000", "155922.530000", "155924.020000", "155925.510000", "155927.000000", "155928.490000", "155929.980000", "155931.470000", "155932.960000", "155934.450000", "155935.940000", "155937.430000", "155938.920000", "155940.410000", "155941.900000", "155943.390000", "155944.880000", "155946.370000", "155947.860000", "155949.350000", "155950.840000", "155952.330000", "155953.820000", "155955.310000", "155956.800000", "155958.290000", "155959.780000", "160001.270000", "160002.760000", "160004.250000", "160005.740000", "160007.230000", "160008.720000", "160010.210000", "160011.700000", "160013.190000", "160014.680000", "160016.170000", "160017.660000", "160019.150000", "160020.640000", "160022.130000", "160023.620000", "160025.110000", "160026.600000", "160028.090000", "160029.580000", "160031.070000", "160032.560000", "160034.050000", "160035.540000", "160037.030000", "160038.520000", "160040.010000", "160041.500000", "160042.990000", "160044.480000", "160045.970000", "160047.460000", "160048.950000", "160050.440000", "160051.930000", "160053.420000", "160054.910000", "160056.400000", "160057.890000", "160059.380000", "160100.870000", "160102.360000", "160103.850000", "160105.340000", "160106.830000", "160108.320000", "160109.810000", "160111.300000", "160112.790000", "160114.280000", "160115.770000", "160117.260000", "160118.750000", "160120.240000", "160121.730000", "160123.220000", "160124.710000", "160126.200000", "160127.690000", "160129.180000", "160130.670000", "160132.160000", "160133.650000", "160135.140000", "160136.630000", "160138.120000", "160139.610000", "160141.100000", "160142.590000", "160144.080000", "160145.570000", "160147.060000", "160148.550000", "160150.040000", "160151.530000", "160153.020000", "160154.510000", "160156.000000", "160157.490000", "160158.980000", "160200.470000", "160201.960000", "160203.450000", "160204.940000", "160206.430000", "160207.920000", "160209.410000", "160210.900000", "160212.390000", "160213.880000", "160215.370000", "160216.860000", "160218.350000", "160219.840000", "160221.330000", "160222.820000", "160224.310000", "160225.800000", "160227.290000", "160228.780000", "160230.270000", "160231.760000", "160233.250000", "160234.740000", "160236.230000", "160237.720000", "160239.210000", "160240.700000", "160242.190000", "160243.680000", "160245.170000", "160246.660000", "160248.150000", "160249.640000", "160251.130000", "160252.620000", "160254.110000", "160255.600000", "160257.090000", "160258.580000", "160300.070000", "160301.560000", "160303.050000", "160304.540000", "160306.030000", "160307.520000", "160309.010000", "160310.500000", "160311.990000", "160313.480000", "160314.970000", "160316.460000", "160317.950000", "160319.440000", "160320.930000", "160322.420000", "160323.910000", "160325.400000", "160326.890000", "160328.380000", "160329.870000", "160331.360000", "160332.850000", "160334.340000", "160335.830000", "160337.320000", "160338.810000", "160340.300000", "160341.790000", "160343.280000", "160344.770000", "160346.260000", "160347.750000", "160349.240000", "160350.730000", "160352.220000", "160353.710000", "160355.200000", "160356.690000", "160358.180000", "160359.670000", "160401.160000", "160402.650000", "160404.140000", "160405.630000", "160407.120000", "160408.610000", "160410.100000", "160411.590000", "160413.080000", "160414.570000", "160416.060000", "160417.550000", "160419.040000", "160420.530000", "160422.020000", "160423.510000", "160425.000000", "160426.490000", "160427.980000", "160429.470000", "160430.960000", "160432.450000", "160433.940000", "160435.430000", "160436.920000", "160438.410000", "160439.900000", "160441.390000", "160442.880000", "160444.370000", "160445.860000", "160447.350000", "160448.840000", "160450.330000", "160451.820000", "160453.310000", "160454.800000", "160456.290000", "160457.780000", "160459.270000", "160500.760000", "160502.250000", "160503.740000", "160505.230000", "160506.720000", "160508.210000", "160509.700000", "160511.190000", "160512.680000", "160514.170000", "160515.660000", "160517.150000", "160518.640000", "160520.130000", "160521.620000", "160523.110000", "160524.600000", "160526.090000", "160527.580000", "160529.070000", "160530.560000", "160532.050000", "160533.540000", "160535.030000", "160536.520000", "160538.010000", "160539.500000", "160540.990000", "160542.480000", "160543.970000", "160545.460000", "160546.950000", "160548.440000", "160549.930000", "160551.420000", "160552.910000", "160554.400000", "160555.890000", "160557.380000", "160558.870000", "160600.360000", "160601.850000", "160603.340000", "160604.830000", "160606.320000", "160607.810000", "160609.300000", "160610.790000", "160612.280000", "160613.770000", "160615.260000", "160616.750000", "160618.240000", "160619.730000", "160621.220000", "160622.710000", "160624.200000", "160625.690000", "160627.180000", "160628.670000", "160630.160000", "160631.650000", "160633.140000", "160634.630000", "160636.120000", "160637.610000", "160639.100000", "160640.590000", "160642.080000", "160643.570000", "160645.060000", "160646.550000", "160648.040000", "160649.530000", "160651.020000", "160652.510000", "160654.000000", "160655.490000", "160656.980000", "160658.470000", "160659.960000", "160701.450000", "160702.940000", "160704.430000", "160705.920000", "160707.410000", "160708.900000", "160710.390000", "160711.880000", "160713.370000", "160714.860000", "160716.350000", "160717.840000", "160719.330000", "160720.820000", "160722.310000", "160723.800000", "160725.290000", "160726.780000", "160728.270000", "160729.760000", "160731.250000", "160732.740000", "160734.230000", "160735.720000", "160737.210000", "160738.700000", "160740.190000", "160741.680000", "160743.170000", "160744.660000", "160746.150000", "160747.640000", "160749.130000", "160750.620000", "160752.110000", "160753.600000", "160755.090000", "160756.580000", "160758.070000", "160759.560000", "160801.050000", "160802.540000", "160804.030000", "160805.520000", "160807.010000", "160808.500000", "160809.990000", "160811.480000", "160812.970000", "160814.460000", "160815.950000", "160817.440000", "160818.930000", "160820.420000", "160821.910000", "160823.400000", "160824.890000", "160826.380000", "160827.870000", "160829.360000", "160830.850000", "160832.340000", "160833.830000", "160835.320000", "160836.810000", "160838.300000", "160839.790000", "160841.280000", "160842.770000", "160844.260000", "160845.750000", "160847.240000", "160848.730000", "160850.220000", "160851.710000", "160853.200000", "160854.690000", "160856.180000", "160857.670000", "160859.160000", "160900.650000", "160902.140000"],
      "ContentTime": ["155724.036000", "155724.039000", "155724.042000", "155724.045000", "155724.048000", "155724.050000", "155724.053000", "155724.056000", "155724.059000", "155724.062000", "155724.065000", "155724.068000", "155724.071000", "155724.073000", "155724.076000", "155724.079000", "155724.082000", "155724.085000", "155724.088000", "155724.091000", "155724.093000", "155724.096000", "155724.099000", "155724.102000", "155724.105000", "155724.108000", "155724.111000", "155724.114000", "155724.116000", "155724.119000", "155724.122000", "155724.125000", "155744.001000", "155744.004000", "155744.013000", "155744.016000", "155744.019000", "155744.022000", "155744.024000", "155744.027000", "155744.030000", "155744.033000", "155744.036000", "155744.039000", "155744.041000", "155744.044000", "155744.048000", "155744.052000", "155744.056000", "155744.059000", "155744.062000", "155744.065000", "155804.001000", "155804.004000", "155804.007000", "155804.010000", "155804.012000", "155804.015000", "155804.018000", "155804.021000", "155804.024000", "155804.027000", "155804.030000", "155804.032000", "155804.035000", "155804.038000", "155804.041000", "155804.044000", "155804.047000", "155804.050000", "155804.052000", "155804.055000", "155804.058000", "155824.002000", "155824.005000", "155824.008000", "155824.010000", "155824.013000", "155824.016000", "155824.019000", "155824.022000", "155824.025000", "155824.028000", "155824.031000", "155824.033000", "155824.036000", "155824.039000", "155824.042000", "155824.045000", "155824.048000", "155824.051000", "155824.053000", "155824.056000", "155904.001000", "155904.004000", "155904.007000", "155904.010000", "155904.012000", "155904.015000", "155904.018000", "155904.021000", "155904.024000", "155904.027000", "155904.030000", "155904.032000", "155904.035000", "155904.038000", "155904.041000", "155904.044000", "155904.047000", "155904.050000", "155904.052000", "155904.055000", "155904.058000", "155904.061000", "155904.064000", "155904.067000", "155904.069000", "155904.072000", "155904.075000", "155904.078000", "155904.081000", "155904.084000", "155904.087000", "155944.001000", "155944.004000", "155944.007000", "155944.010000", "155944.013000", "155944.015000", "155944.018000", "155944.021000", "155944.024000", "155944.027000", "155944.030000", "155944.033000", "155944.035000", "155944.038000", "155944.041000", "155944.044000", "155944.047000", "155944.050000", "155944.052000", "155944.055000", "155944.058000", "155944.061000", "155944.064000", "155944.067000", "155944.070000", "155944.072000", "155944.075000", "160024.001000", "160024.004000", "160024.007000", "160024.010000", "160024.013000", "160024.015000", "160024.018000", "160024.021000", "160024.024000", "160024.027000", "160024.030000", "160024.033000", "160024.035000", "160024.038000", "160024.041000", "160024.044000", "160024.047000", "160024.050000", "160024.053000", "160024.055000", "160024.058000", "160024.061000", "160024.064000", "160024.067000", "160024.070000", "160024.073000", "160024.076000", "160104.001000", "160104.004000", "160104.007000", "160104.010000", "160104.013000", "160104.015000", "160104.019000", "160104.022000", "160104.024000", "160104.027000", "160104.030000", "160104.033000", "160104.036000", "160104.039000", "160104.042000", "160104.045000", "160104.048000", "160104.051000", "160104.053000", "160104.056000", "160104.059000", "160104.062000", "160104.065000", "160104.068000", "160104.071000", "160104.074000", "160144.001000", "160144.004000", "160144.007000", "160144.010000", "160144.012000", "160144.015000", "160144.018000", "160144.021000", "160144.024000", "160144.027000", "160144.030000", "160144.033000", "160144.035000", "160144.038000", "160144.041000", "160144.044000", "160144.047000", "160144.050000", "160144.053000", "160144.055000", "160144.058000", "160144.061000", "160144.064000", "160144.067000", "160144.070000", "160144.073000", "160144.076000", "160224.001000", "160224.004000", "160224.007000", "160224.010000", "160224.012000", "160224.015000", "160224.018000", "160224.021000", "160224.024000", "160224.027000", "160224.030000", "160224.032000", "160224.035000", "160224.038000", "160224.041000", "160224.044000", "160224.047000", "160224.050000", "160224.053000", "160224.056000", "160224.058000", "160224.061000", "160224.064000", "160224.067000", "160224.070000", "160224.073000", "160224.076000", "160304.004000", "160304.007000", "160304.010000", "160304.012000", "160304.015000", "160304.018000", "160304.021000", "160304.024000", "160304.027000", "160304.030000", "160304.033000", "160304.035000", "160304.038000", "160304.041000", "160304.044000", "160304.047000", "160304.050000", "160304.053000", "160304.056000", "160304.058000", "160304.061000", "160304.064000", "160304.067000", "160304.070000", "160304.073000", "160304.076000", "160304.079000", "160344.001000", "160344.004000", "160344.007000", "160344.010000", "160344.013000", "160344.015000", "160344.018000", "160344.021000", "160344.024000", "160344.027000", "160344.030000", "160344.033000", "160344.035000", "160344.038000", "160344.041000", "160344.044000", "160344.047000", "160344.050000", "160344.053000", "160344.056000", "160344.058000", "160344.061000", "160344.064000", "160344.067000", "160344.070000", "160344.073000", "160344.075000", "160424.001000", "160424.004000", "160424.007000", "160424.010000", "160424.012000", "160424.015000", "160424.018000", "160424.021000", "160424.024000", "160424.039000", "160424.042000", "160424.045000", "160424.048000", "160424.051000", "160424.054000", "160424.056000", "160424.059000", "160424.062000", "160424.065000", "160424.068000", "160424.071000", "160424.074000", "160424.077000", "160424.080000", "160424.082000", "160424.085000", "160424.088000", "160504.001000", "160504.004000", "160504.007000", "160504.010000", "160504.013000", "160504.015000", "160504.018000", "160504.021000", "160504.024000", "160504.027000", "160504.030000", "160504.033000", "160504.036000", "160504.039000", "160504.041000", "160504.044000", "160504.047000", "160504.050000", "160504.053000", "160504.056000", "160504.059000", "160504.061000", "160504.064000", "160504.067000", "160504.070000", "160504.073000", "160504.076000", "160544.001000", "160544.004000", "160544.007000", "160544.010000", "160544.012000", "160544.015000", "160544.018000", "160544.021000", "160544.033000", "160544.036000", "160544.039000", "160544.041000", "160544.044000", "160544.047000", "160544.050000", "160544.053000", "160544.056000", "160544.059000", "160544.062000", "160544.064000", "160544.067000", "160544.070000", "160544.073000", "160544.076000", "160544.079000", "160544.083000", "160624.001000", "160624.004000", "160624.007000", "160624.010000", "160624.012000", "160624.015000", "160624.018000", "160624.021000", "160624.024000", "160624.027000", "160624.030000", "160624.033000", "160624.035000", "160624.038000", "160624.041000", "160624.044000", "160624.047000", "160624.050000", "160624.053000", "160624.055000", "160624.058000", "160624.061000", "160624.064000", "160624.067000", "160624.070000", "160624.073000", "160624.076000", "160704.001000", "160704.004000", "160704.007000", "160704.010000", "160704.013000", "160704.015000", "160704.018000", "160704.021000", "160704.024000", "160704.027000", "160704.030000", "160704.033000", "160704.036000", "160704.038000", "160704.041000", "160704.044000", "160704.047000", "160704.050000", "160704.053000", "160704.055000", "160704.058000", "160704.061000", "160704.064000", "160704.067000", "160704.070000", "160704.073000", "160704.076000", "160744.002000", "160744.005000", "160744.008000", "160744.011000", "160744.014000", "160744.016000", "160744.019000", "160744.022000", "160744.025000", "160744.028000", "160744.031000", "160744.034000", "160744.037000", "160744.039000", "160744.042000", "160744.045000", "160744.048000", "160744.051000", "160744.054000", "160744.057000", "160744.060000", "160744.063000", "160744.065000", "160744.068000", "160744.071000", "160744.074000", "160744.077000", "160824.001000", "160824.004000", "160824.007000", "160824.010000", "160824.013000", "160824.016000", "160824.018000", "160824.021000", "160824.024000", "160824.027000", "160824.030000", "160824.033000", "160824.036000", "160824.039000", "160824.041000", "160824.044000", "160824.047000", "160824.050000", "160824.053000", "160824.056000", "160824.059000", "160824.061000", "160824.064000", "160824.067000", "160824.070000", "160824.073000", "160824.076000", "160904.001000", "160904.004000", "160904.007000", "160904.010000", "160904.013000", "160904.016000", "160904.018000", "160904.021000", "160904.024000", "160904.051000", "160904.054000", "160904.057000", "160904.059000", "160904.062000", "160904.065000", "160904.068000", "160904.071000", "160904.074000", "160904.077000", "160904.080000", "160904.083000", "160904.085000", "160904.088000", "160904.091000", "160904.094000", "160904.097000", "160904.100000"],
