{
  "AcquisitionMatrixPE": 104,
  "AcquisitionNumber": 1,
  "AcquisitionTime": "09:34:13.920000",
  "BandwidthPerPixelPhaseEncode": 17.17,
  "BaseResolution": 104,
  "BodyPartExamined": "BRAIN",
  "CoilString": "HC1-7;NC1_2",
  "ConsistencyInfo": "N4_VE11C_LATEST_20160120",
  "ConversionSoftware": "dcm2niix",
  "ConversionSoftwareVersion": "v1.0.20190902",
  "DerivedVendorReportedEchoSpacing": 0.000560011,
  "DeviceSerialNumber": "167006",
  "DwellTime": 2.1e-06,
  "EchoTime": 0.037,
  "EchoTrainLength": 104,
  "EffectiveEchoSpacing": 0.000560011,
  "FlipAngle": 52,
  "ImageComments": "Unaliased_MB4_PE3_LB",
  "ImageOrientationPatientDICOM": [0.998165, 0.00212013, -0.0605112, -0.016029, 0.972984, -0.230317],
  "ImageType": [
    "ORIGINAL",
    "PRIMARY",
    "M",
    "MB",
    "ND",
    "MOSAIC"
],
  "ImagingFrequency": 123.259,
  "InPlanePhaseEncodingDirectionDICOM": "COL",
  "InstitutionAddress": "Chemin_Queen-Mary_4565_Montreal_District_CA_H3W_1W5",
  "InstitutionName": "IUGM",
  "InstitutionalDepartmentName": "Department",
  "MRAcquisitionType": "2D",
  "MagneticFieldStrength": 3,
  "Manufacturer": "Siemens",
  "ManufacturersModelName": "Prisma_fit",
  "Modality": "MR",
  "MultibandAccelerationFactor": 4,
  "PartialFourier": 1,
  "PatientPosition": "HFS",
  "PercentPhaseFOV": 100,
  "PhaseEncodingDirection": "j",
  "PhaseEncodingSteps": 104,
  "PhaseResolution": 1,
  "PixelBandwidth": 2290,
  "ProcedureStepDescription": "games_shinobi",
  "ProtocolName": "func_task-shinobi_run-2",
  "PulseSequenceDetails": "%CustomerSeq%_cmrr_mbep2d_bold",
  "ReceiveCoilActiveElements": "HC1-7;NC1,2",
  "ReceiveCoilName": "HeadNeck_64",
  "ReconMatrixPE": 104,
  "RepetitionTime": 1.49,
  "SAR": 0.0267321,
  "ScanOptions": "FS",
  "ScanningSequence": "EP",
  "SequenceName": "epfid2d1_104",
  "SequenceVariant": "SK_SS",
  "SeriesDescription": "func_task-shinobi_run-2",
  "SeriesNumber": 11,
  "ShimSetting": [596, -7237, -8841, 612, -79, -268, 32, 58],
  "SliceThickness": 2,
  "SliceTiming": [0, 0.7825, 0.0975, 0.88, 0.195, 0.98, 0.2925, 1.0775, 0.39, 1.175, 0.49, 1.2725, 0.5875, 1.37, 0.685, 0, 0.7825, 0.0975, 0.88, 0.195, 0.98, 0.2925, 1.0775, 0.39, 1.175, 0.49, 1.2725, 0.5875, 1.37, 0.685, 0, 0.7825, 0.0975, 0.88, 0.195, 0.98, 0.2925, 1.0775, 0.39, 1.175, 0.49, 1.2725, 0.5875, 1.37, 0.685, 0, 0.7825, 0.0975, 0.88, 0.195, 0.98, 0.2925, 1.0775, 0.39, 1.175, 0.49, 1.2725, 0.5875, 1.37, 0.685],
  "SoftwareVersions": "syngo_MR_E11",
  "SpacingBetweenSlices": 2,
  "StationName": "MRC35049",
  "TaskName": "shinobi",
  "TotalReadoutTime": 0.0576811,
  "TxRefAmp": 211.013,
  "WipMemBlock": "6c5c7731-62a0-49c9-ac4e-62fd914dfa3b||Sequence: R016 ve11c/master r/e634e98; Dec 19 2017 11:00:25 by eja",
  "dcmmeta_affine": [
    [-1.9963304996490479, -0.03205801546573639, -0.11677619814872742, 107.30274200439453],
    [-0.004240255802869797, 1.9459673166275024, -0.4617284834384918, -71.5449447631836],
    [-0.12102238088846207, 0.4606337547302246, 1.94246506690979, -49.023414611816406],
    [0.0, 0.0, 0.0, 1.0]
],
  "dcmmeta_reorient_transform": [
    [0.0, -1.0, 0.0, 103.0],
    [1.0, 0.0, 0.0, 0.0],
    [0.0, 0.0, 1.0, 0.0],
    [0.0, 0.0, 0.0, 1.0]
],
  "dcmmeta_shape": [104, 104, 60, 465],
  "dcmmeta_slice_dim": 2,
  "dcmmeta_version": 0.6,
  "global": {
    "const": {
      "AcquisitionMatrix": [104, 0, 0, 104],
      "AngioFlag": "N",
      "BitsAllocated": 16,
      "BitsStored": 16,
      "BodyPartExamined": "BRAIN",
      "Columns": 832,
      "EchoNumbers": 1,
      "EchoTime": 37.0,
      "EchoTrainLength": 104,
      "FlipAngle": 52.0,
      "HighBit": 15,
      "ImageOrientationPatient": [0.99816526739642, 0.00212012781424, -0.0605111892254, -0.0160290068254, 0.97298366217401, -0.2303168775462],
      "ImagePositionPatient": [-818.99596810023, -838.7652522723, 210.14469656442],
      "ImageType": [
        "ORIGINAL",
        "PRIMARY",
        "M",
        "MB",
        "ND",
        "MOSAIC"
],
      "ImagedNucleus": "1H",
      "ImagingFrequency": 123.258994,
      "InPlanePhaseEncodingDirection": "COL",
      "MRAcquisitionType": "2D",
      "MagneticFieldStrength": 3.0,
      "Manufacturer": "SIEMENS",
      "ManufacturerModelName": "Prisma_fit",
      "Modality": "MR",
      "NumberOfAverages": 1.0,
      "NumberOfPhaseEncodingSteps": 104,
      "PercentPhaseFieldOfView": 100.0,
      "PercentSampling": 100.0,
      "PerformedProcedureStepStartTime": "091105.083000",
      "PhotometricInterpretation": "MONOCHROME2",
      "PixelBandwidth": 2290.0,
      "PixelRepresentation": 0,
      "PixelSpacing": [2.0, 2.0],
      "ProtocolName": "func_task-shinobi_run-2",
      "RepetitionTime": 1490.0,
      "Rows": 832,
      "SAR": 0.02673207352534,
      "SamplesPerPixel": 1,
      "ScanOptions": "FS",
      "ScanningSequence": "EP",
      "SequenceName": "epfid2d1_104",
      "SequenceVariant": [
        "SK",
        "SS"
],
      "SeriesDescription": "func_task-shinobi_run-2",
      "SeriesNumber": 11,
      "SeriesTime": "093528.386000",
      "SliceLocation": -37.361165389525,
      "SliceThickness": 2.0,
      "SmallestImagePixelValue": 0,
      "SoftwareVersions": "syngo MR E11",
      "SpacingBetweenSlices": 2.0000000577885,
      "SpecificCharacterSet": "ISO_IR 100",
      "StudyID": "1",
      "StudyTime": "091104.930000",
      "TransmitCoilName": "Body",
      "VariableFlipAngleFlag": "N",
      "WindowCenterWidthExplanation": "Algo1",
      "dBdt": 0.0},
    "slices": {}
  },
  "time": {
    "samples": {
      "AcquisitionNumber": [1, 2, 3, 4, 5, 6, 7, 8, 9, 10, 11, 12, 13, 14, 15, 16, 17, 18, 19, 20, 21, 22, 23, 24, 25, 26, 27, 28, 29, 30, 31, 32, 33, 34, 35, 36, 37, 38, 39, 40, 41, 42, 43, 44, 45, 46, 47, 48, 49, 50, 51, 52, 53, 54, 55, 56, 57, 58, 59, 60, 61, 62, 63, 64, 65, 66, 67, 68, 69, 70, 71, 72, 73, 74, 75, 76, 77, 78, 79, 80, 81, 82, 83, 84, 85, 86, 87, 88, 89, 90, 91, 92, 93, 94, 95, 96, 97, 98, 99, 100, 101, 102, 103, 104, 105, 106, 107, 108, 109, 110, 111, 112, 113, 114, 115, 116, 117, 118, 119, 120, 121, 122, 123, 124, 125, 126, 127, 128, 129, 130, 131, 132, 133, 134, 135, 136, 137, 138, 139, 140, 141, 142, 143, 144, 145, 146, 147, 148, 149, 150, 151, 152, 153, 154, 155, 156, 157, 158, 159, 160, 161, 162, 163, 164, 165, 166, 167, 168, 169, 170, 171, 172, 173, 174, 175, 176, 177, 178, 179, 180, 181, 182, 183, 184, 185, 186, 187, 188, 189, 190, 191, 192, 193, 194, 195, 196, 197, 198, 199, 200, 201, 202, 203, 204, 205, 206, 207, 208, 209, 210, 211, 212, 213, 214, 215, 216, 217, 218, 219, 220, 221, 222, 223, 224, 225, 226, 227, 228, 229, 230, 231, 232, 233, 234, 235, 236, 237, 238, 239, 240, 241, 242, 243, 244, 245, 246, 247, 248, 249, 250, 251, 252, 253, 254, 255, 256, 257, 258, 259, 260, 261, 262, 263, 264, 265, 266, 267, 268, 269, 270, 271, 272, 273, 274, 275, 276, 277, 278, 279, 280, 281, 282, 283, 284, 285, 286, 287, 288, 289, 290, 291, 292, 293, 294, 295, 296, 297, 298, 299, 300, 301, 302, 303, 304, 305, 306, 307, 308, 309, 310, 311, 312, 313, 314, 315, 316, 317, 318, 319, 320, 321, 322, 323, 324, 325, 326, 327, 328, 329, 330, 331, 332, 333, 334, 335, 336, 337, 338, 339, 340, 341, 342, 343, 344, 345, 346, 347, 348, 349, 350, 351, 352, 353, 354, 355, 356, 357, 358, 359, 360, 361, 362, 363, 364, 365, 366, 367, 368, 369, 370, 371, 372, 373, 374, 375, 376, 377, 378, 379, 380, 381, 382, 383, 384, 385, 386, 387, 388, 389, 390, 391, 392, 393, 394, 395, 396, 397, 398, 399, 400, 401, 402, 403, 404, 405, 406, 407, 408, 409, 410, 411, 412, 413, 414, 415, 416, 417, 418, 419, 420, 421, 422, 423, 424, 425, 426, 427, 428, 429, 430, 431, 432, 433, 434, 435, 436, 437, 438, 439, 440, 441, 442, 443, 444, 445, 446, 447, 448, 449, 450, 451, 452, 453, 454, 455, 456, 457, 458, 459, 460, 461, 462, 463, 464, 465],
      "AcquisitionTime": ["093413.920000", "093415.410000", "093416.900000", "093418.390000", "093419.880000", "093421.370000", "093422.860000", "093424.350000", "093425.840000", "093427.330000", "093428.820000", "093430.310000", "093431.800000", "093433.290000", "093434.780000", "093436.270000", "093437.760000", "093439.250000", "093440.740000", "093442.230000", "093443.720000", "093445.210000", "093446.700000", "093448.190000", "093449.680000", "093451.170000", "093452.660000", "093454.150000", "093455.640000", "093457.130000", "093458.620000", "093500.110000", "093501.600000", "093503.090000", "093504.580000", "093506.070000", "093507.560000", "093509.050000", "093510.540000", "093512.030000", "093513.520000", "093515.010000", "093516.500000", "093517.990000", "093519.480000", "093520.970000", "093522.460000", "093523.950000", "093525.440000", "093526.930000", "093528.420000", "093529.910000", "093531.400000", "093532.890000", "093534.380000", "093535.870000", "093537.360000", "093538.850000", "093540.340000", "093541.830000", "093543.320000", "093544.810000", "093546.300000", "093547.790000", "093549.280000", "093550.770000", "093552.260000", "093553.750000", "093555.240000", "093556.730000", "093558.220000", "093559.710000", "093601.200000", "093602.690000", "093604.180000", "093605.670000", "093607.160000", "093608.650000", "093610.140000", "093611.630000", "093613.120000", "093614.610000", "093616.100000", "093617.590000", "093619.080000", "093620.570000", "093622.060000", "093623.550000", "093625.040000", "093626.530000", "093628.020000", "093629.510000", "093631.000000", "093632.490000", "093633.980000", "093635.470000", "093636.960000", "093638.450000", "093639.940000", "093641.430000", "093642.920000", "093644.410000", "093645.900000", "093647.390000", "093648.880000", "093650.370000", "093651.860000", "093653.350000", "093654.840000", "093656.330000", "093657.820000", "093659.310000", "093700.800000", "093702.290000", "093703.780000", "093705.270000", "093706.760000", "093708.250000", "093709.740000", "093711.230000", "093712.720000", "093714.210000", "093715.700000", "093717.190000", "093718.680000", "093720.170000", "093721.660000", "093723.150000", "093724.640000", "093726.130000", "093727.620000", "093729.110000", "093730.600000", "093732.090000", "093733.580000", "093735.070000", "093736.560000", "093738.050000", "093739.540000", "093741.030000", "093742.520000", "093744.010000", "093745.500000", "093746.990000", "093748.480000", "093749.970000", "093751.460000", "093752.950000", "093754.440000", "093755.930000", "093757.420000", "093758.910000", "093800.400000", "093801.890000", "093803.380000", "093804.870000", "093806.360000", "093807.850000", "093809.340000", "093810.830000", "093812.320000", "093813.810000", "093815.300000", "093816.790000", "093818.280000", "093819.770000", "093821.260000", "093822.750000", "093824.240000", "093825.730000", "093827.220000", "093828.710000", "093830.200000", "093831.690000", "093833.180000", "093834.670000", "093836.160000", "093837.650000", "093839.140000", "093840.630000", "093842.120000", "093843.610000", "093845.100000", "093846.590000", "093848.080000", "093849.570000", "093851.060000", "093852.550000", "093854.040000", "093855.530000", "093857.020000", "093858.510000", "093900.000000", "093901.490000", "093902.980000", "093904.470000", "093905.960000", "093907.450000", "093908.940000", "093910.430000", "093911.920000", "093913.410000", "093914.900000", "093916.390000", "093917.880000", "093919.370000", "093920.860000", "093922.350000", "093923.840000", "093925.330000", "093926.820000", "093928.310000", "093929.800000", "093931.290000", "093932.780000", "093934.270000", "093935.760000", "093937.250000", "093938.740000", "093940.230000", "093941.720000", "093943.210000", "093944.700000", "093946.190000", "093947.680000", "093949.170000", "093950.660000", "093952.150000", "093953.640000", "093955.130000", "093956.620000", "093958.110000", "093959.600000", "094001.090000", "094002.580000", "094004.070000", "094005.560000", "094007.050000", "094008.540000", "094010.030000", "094011.520000", "094013.010000", "094014.500000", "094015.990000", "094017.480000", "094018.970000", "094020.460000", "094021.950000", "094023.440000", "094024.930000", "094026.420000", "094027.910000", "094029.400000", "094030.890000", "094032.380000", "094033.870000", "094035.360000", "094036.850000", "094038.340000", "094039.830000", "094041.320000", "094042.810000", "094044.300000", "094045.790000", "094047.280000", "094048.770000", "094050.260000", "094051.750000", "094053.240000", "094054.730000", "094056.220000", "094057.710000", "094059.200000", "094100.690000", "094102.180000", "094103.670000", "094105.160000", "094106.650000", "094108.140000", "094109.630000", "094111.120000", "094112.610000", "094114.100000", "094115.590000", "094117.080000", "094118.570000", "094120.060000", "094121.550000", "094123.040000", "094124.530000", "094126.020000", "094127.510000", "094129.000000", "094130.490000", "094131.980000", "094133.470000", "094134.960000", "094136.450000", "094137.940000", "094139.430000", "094140.920000", "094142.410000", "094143.900000", "094145.390000", "094146.880000", "094148.370000", "094149.860000", "094151.350000", "094152.840000", "094154.330000", "094155.820000", "094157.310000", "094158.800000", "094200.290000", "094201.780000", "094203.270000", "094204.760000", "094206.250000", "094207.740000", "094209.230000", "094210.720000", "094212.210000", "094213.700000", "094215.190000", "094216.680000", "094218.170000", "094219.660000", "094221.150000", "094222.640000", "094224.130000", "094225.620000", "094227.110000", "094228.600000", "094230.090000", "094231.580000", "094233.070000", "094234.560000", "094236.050000", "094237.540000", "094239.030000", "094240.520000", "094242.010000", "094243.500000", "094244.990000", "094246.480000", "094247.970000", "094249.460000", "094250.950000", "094252.440000", "094253.930000", "094255.420000", "094256.910000", "094258.400000", "094259.890000", "094301.380000", "094302.870000", "094304.360000", "094305.850000", "094307.340000", "094308.830000", "094310.320000", "094311.810000", "094313.300000", "094314.790000", "094316.280000", "094317.770000", "094319.260000", "094320.750000", "094322.240000", "094323.730000", "094325.220000", "094326.710000", "094328.200000", "094329.690000", "094331.180000", "094332.670000", "094334.160000", "094335.650000", "094337.140000", "094338.630000", "094340.120000", "094341.610000", "094343.100000", "094344.590000", "094346.080000", "094347.570000", "094349.060000", "094350.550000", "094352.040000", "094353.530000", "094355.020000", "094356.510000", "094358.000000", "094359.490000", "094400.980000", "094402.470000", "094403.960000", "094405.450000", "094406.940000", "094408.430000", "094409.920000", "094411.410000", "094412.900000", "094414.390000", "094415.880000", "094417.370000", "094418.860000", "094420.350000", "094421.840000", "094423.330000", "094424.820000", "094426.310000", "094427.800000", "094429.290000", "094430.780000", "094432.270000", "094433.760000", "094435.250000", "094436.740000", "094438.230000", "094439.720000", "094441.210000", "094442.700000", "094444.190000", "094445.680000", "094447.170000", "094448.660000", "094450.150000", "094451.640000", "094453.130000", "094454.620000", "094456.110000", "094457.600000", "094459.090000", "094500.580000", "094502.070000", "094503.560000", "094505.050000", "094506.540000", "094508.030000", "094509.520000", "094511.010000", "094512.500000", "094513.990000", "094515.480000", "094516.970000", "094518.460000", "094519.950000", "094521.440000", "094522.930000", "094524.420000", "094525.910000", "094527.400000", "094528.890000", "094530.380000", "094531.870000", "094533.360000", "094534.850000", "094536.340000", "094537.830000", "094539.320000", "094540.810000", "094542.300000", "094543.790000", "094545.280000"],
      "ContentTime": ["093528.389000", "093528.392000", "093528.395000", "093528.404000", "093528.407000", "093528.410000", "093528.413000", "093528.416000", "093528.418000", "093528.421000", "093528.424000", "093528.427000", "093528.430000", "093528.433000", "093528.436000", "093528.439000", "093528.442000", "093528.447000", "093528.450000", "093528.453000", "093548.302000", "093548.305000", "093548.308000", "093548.311000", "093548.319000", "093548.322000", "093548.324000", "093548.327000", "093548.330000", "093548.333000", "093548.336000", "093548.339000", "093548.342000", "093548.345000", "093548.347000", "093548.350000", "093548.353000", "093548.356000", "093548.359000", "093548.362000", "093608.302000", "093608.305000", "093608.308000", "093608.311000", "093608.314000", "093608.316000", "093608.319000", "093608.322000", "093608.325000", "093608.328000", "093608.331000", "093608.334000", "093608.344000", "093608.347000", "093608.350000", "093608.353000", "093608.355000", "093608.358000", "093608.361000", "093608.364000", "093628.302000", "093628.305000", "093628.308000", "093628.311000", "093628.330000", "093628.333000", "093628.336000", "093628.339000", "093628.342000", "093628.345000", "093628.348000", "093628.350000", "093628.353000", "093628.356000", "093628.359000", "093628.362000", "093628.365000", "093628.368000", "093628.371000", "093628.374000", "093648.302000", "093648.305000", "093648.308000", "093648.310000", "093648.313000", "093648.316000", "093648.319000", "093648.322000", "093648.325000", "093648.327000", "093648.330000", "093648.333000", "093648.336000", "093648.339000", "093648.342000", "093648.345000", "093648.347000", "093648.350000", "093648.353000", "093648.356000", "093728.302000", "093728.305000", "093728.308000", "093728.311000", "093728.313000", "093728.316000", "093728.320000", "093728.323000", "093728.326000", "093728.329000", "093728.332000", "093728.334000", "093728.337000", "093728.340000", "093728.343000", "093728.346000", "093728.349000", "093728.352000", "093728.355000", "093728.358000", "093728.360000", "093728.363000", "093728.366000", "093728.369000", "093728.372000", "093728.375000", "093728.378000", "093728.381000", "093728.383000", "093808.302000", "093808.305000", "093808.308000", "093808.311000", "093808.314000", "093808.317000", "093808.320000", "093808.323000", "093808.325000", "093808.328000", "093808.331000", "093808.334000", "093808.337000", "093808.340000", "093808.343000", "093808.346000", "093808.348000", "093808.351000", "093808.354000", "093808.357000", "093808.360000", "093808.363000", "093808.366000", "093808.368000", "093808.371000", "093808.374000", "093808.377000", "093848.302000", "093848.305000", "093848.308000", "093848.311000", "093848.313000", "093848.316000", "093848.330000", "093848.333000", "093848.336000", "093848.339000", "093848.341000", "093848.344000", "093848.347000", "093848.350000", "093848.353000", "093848.356000", "093848.359000", "093848.362000", "093848.364000", "093848.367000", "093848.370000", "093848.373000", "093848.376000", "093848.379000", "093848.381000", "093848.384000", "093848.387000", "093928.302000", "093928.305000", "093928.308000", "093928.311000", "093928.313000", "093928.316000", "093928.319000", "093928.322000", "093928.325000", "093928.328000", "093928.331000", "093928.334000", "093928.337000", "093928.339000", "093928.342000", "093928.345000", "093928.348000", "093928.351000", "093928.354000", "093928.357000", "093928.359000", "093928.362000", "093928.365000", "093928.368000", "093928.371000", "093928.374000", "093928.377000", "094008.302000", "094008.305000", "094008.308000", "094008.311000", "094008.314000", "094008.316000", "094008.319000", "094008.322000", "094008.325000", "094008.328000", "094008.331000", "094008.334000", "094008.337000", "094008.340000", "094008.343000", "094008.346000", "094008.348000", "094008.351000", "094008.354000", "094008.357000", "094008.360000", "094008.363000", "094008.366000", "094008.369000", "094008.372000", "094008.374000", "094008.377000", "094048.302000", "094048.305000", "094048.308000", "094048.311000", "094048.313000", "094048.316000", "094048.319000", "094048.322000", "094048.325000", "094048.328000", "094048.331000", "094048.334000", "094048.336000", "094048.339000", "094048.342000", "094048.345000", "094048.348000", "094048.351000", "094048.354000", "094048.356000", "094048.359000", "094048.362000", "094048.365000", "094048.378000", "094048.381000", "094048.384000", "094048.387000", "094128.302000", "094128.305000", "094128.308000", "094128.311000", "094128.314000", "094128.317000", "094128.320000", "094128.323000", "094128.326000", "094128.329000", "094128.332000", "094128.334000", "094128.337000", "094128.340000", "094128.343000", "094128.346000", "094128.349000", "094128.351000", "094128.354000", "094128.357000", "094128.360000", "094128.363000", "094128.366000", "094128.369000", "094128.372000", "094128.374000", "094208.302000", "094208.305000", "094208.308000", "094208.311000", "094208.314000", "094208.316000", "094208.319000", "094208.322000", "094208.325000", "094208.328000", "094208.331000", "094208.334000", "094208.337000", "094208.339000", "094208.342000", "094208.345000", "094208.348000", "094208.351000", "094208.354000", "094208.356000", "094208.359000", "094208.362000", "094208.365000", "094208.368000", "094208.371000", "094208.374000", "094208.377000", "094248.302000", "094248.305000", "094248.308000", "094248.311000", "094248.314000", "094248.317000", "094248.319000", "094248.322000", "094248.325000", "094248.328000", "094248.331000", "094248.334000", "094248.337000", "094248.340000", "094248.343000", "094248.346000", "094248.348000", "094248.351000", "094248.364000", "094248.367000", "094248.370000", "094248.373000", "094248.376000", "094248.379000", "094248.382000", "094248.385000", "094248.387000", "094328.302000", "094328.305000", "094328.308000", "094328.311000", "094328.314000", "094328.316000", "094328.319000", "094328.322000", "094328.325000", "094328.328000", "094328.331000", "094328.334000", "094328.337000", "094328.340000", "094328.343000", "094328.345000", "094328.348000", "094328.351000", "094328.354000", "094328.357000", "094328.360000", "094328.363000", "094328.366000", "094328.368000", "094328.371000", "094328.374000", "094328.377000", "094408.302000", "094408.313000", "094408.315000", "094408.318000", "094408.321000", "094408.324000", "094408.327000", "094408.330000", "094408.333000", "094408.336000", "094408.339000", "094408.342000", "094408.344000", "094408.347000", "094408.350000", "094408.353000", "094408.356000", "094408.359000", "094408.362000", "094408.365000", "094408.368000", "094408.371000", "094408.373000", "094408.376000", "094408.379000", "094408.382000", "094408.385000", "094448.302000", "094448.305000", "094448.308000", "094448.311000", "094448.314000", "094448.316000", "094448.319000", "094448.322000", "094448.325000", "094448.328000", "094448.331000", "094448.334000", "094448.337000", "094448.340000", "094448.343000", "094448.345000", "094448.348000", "094448.351000", "094448.354000", "094448.357000", "094448.360000", "094448.363000", "094448.366000", "094448.369000", "094448.371000", "094448.374000", "094448.377000", "094508.302000", "094508.305000", "094508.308000", "094508.311000", "094508.314000", "094508.317000", "094508.320000", "094508.322000", "094508.325000", "094508.328000", "094508.331000", "094508.334000", "094508.337000", "094548.310000", "094548.313000", "094548.316000", "094548.319000", "094548.322000", "094548.325000", "094548.335000", "094548.338000", "094548.341000", "094548.344000", "094548.347000", "094548.350000", "094548.353000", "094548.356000", "094548.359000", "094548.362000", "094548.364000", "094548.367000", "094548.370000", "094548.373000", "094548.376000", "094548.379000", "094548.382000", "094548.385000", "094548.388000", "094548.390000", "094548.393000"],
