{
  "AcquisitionMatrixPE": 104,
  "AcquisitionNumber": 1,
  "AcquisitionTime": "15:44:47.332500",
  "BandwidthPerPixelPhaseEncode": 17.17,
  "BaseResolution": 104,
  "BodyPartExamined": "BRAIN",
  "CoilString": "HC1-7;NC1_2",
  "ConsistencyInfo": "N4_VE11C_LATEST_20160120",
  "ConversionSoftware": "dcm2niix",
  "ConversionSoftwareVersion": "v1.0.20190902",
  "DerivedVendorReportedEchoSpacing": 0.000560011,
  "DeviceSerialNumber": "167006",
  "DwellTime": 2.1e-06,
  "EchoTime": 0.037,
  "EchoTrainLength": 104,
  "EffectiveEchoSpacing": 0.000560011,
  "FlipAngle": 52,
  "ImageComments": "Unaliased_MB4_PE3_LB",
  "ImageOrientationPatientDICOM": [0.998906, -0.0410682, 0.0223598, 0.0464083, 0.929285, -0.366436],
  "ImageType": [
    "ORIGINAL",
    "PRIMARY",
    "M",
    "MB",
    "ND",
    "MOSAIC"
],
  "ImagingFrequency": 123.259,
  "InPlanePhaseEncodingDirectionDICOM": "COL",
  "InstitutionAddress": "Chemin_Queen-Mary_4565_Montreal_District_CA_H3W_1W5",
  "InstitutionName": "IUGM",
  "InstitutionalDepartmentName": "Department",
  "MRAcquisitionType": "2D",
  "MagneticFieldStrength": 3,
  "Manufacturer": "Siemens",
  "ManufacturersModelName": "Prisma_fit",
  "Modality": "MR",
  "MultibandAccelerationFactor": 4,
  "PartialFourier": 1,
  "PatientPosition": "HFS",
  "PercentPhaseFOV": 100,
  "PhaseEncodingDirection": "j",
  "PhaseEncodingSteps": 104,
  "PhaseResolution": 1,
  "PixelBandwidth": 2290,
  "ProcedureStepDescription": "games_shinobi",
  "ProtocolName": "func_task-shinobi_run-3",
  "PulseSequenceDetails": "%CustomerSeq%_cmrr_mbep2d_bold",
  "ReceiveCoilActiveElements": "HC1-7;NC1,2",
  "ReceiveCoilName": "HeadNeck_64",
  "ReconMatrixPE": 104,
  "RepetitionTime": 1.49,
  "SAR": 0.0310167,
  "ScanOptions": "FS",
  "ScanningSequence": "EP",
  "SequenceName": "epfid2d1_104",
  "SequenceVariant": "SK_SS",
  "SeriesDescription": "func_task-shinobi_run-3",
  "SeriesNumber": 13,
  "ShimSetting": [639, -7250, -8858, 582, 35, -215, -97, -2],
  "SliceThickness": 2,
  "SliceTiming": [0, 0.785, 0.0975, 0.8825, 0.1975, 0.98, 0.295, 1.0775, 0.3925, 1.1775, 0.49, 1.275, 0.5875, 1.3725, 0.6875, 0, 0.785, 0.0975, 0.8825, 0.1975, 0.98, 0.295, 1.0775, 0.3925, 1.1775, 0.49, 1.275, 0.5875, 1.3725, 0.6875, 0, 0.785, 0.0975, 0.8825, 0.1975, 0.98, 0.295, 1.0775, 0.3925, 1.1775, 0.49, 1.275, 0.5875, 1.3725, 0.6875, 0, 0.785, 0.0975, 0.8825, 0.1975, 0.98, 0.295, 1.0775, 0.3925, 1.1775, 0.49, 1.275, 0.5875, 1.3725, 0.6875],
  "SoftwareVersions": "syngo_MR_E11",
  "SpacingBetweenSlices": 2,
  "StationName": "MRC35049",
  "TaskName": "shinobi",
  "TotalReadoutTime": 0.0576811,
  "TxRefAmp": 220.857,
  "WipMemBlock": "1c76907b-c3eb-4e7c-a754-2a2f04c2a440||Sequence: R016 ve11c/master r/e634e98; Dec 19 2017 11:00:25 by eja",
  "dcmmeta_affine": [
    [-1.997812271118164, 0.092816561460495, 0.01145947352051735, 101.42416381835938],
    [0.08213643729686737, 1.8585703372955322, -0.7341457605361938, -67.09059143066406],
    [0.04471955820918083, 0.7328720688819885, 1.8603490591049194, -76.78048706054688],
    [0.0, 0.0, 0.0, 1.0]
],
  "dcmmeta_reorient_transform": [
    [0.0, -1.0, 0.0, 103.0],
    [1.0, 0.0, 0.0, 0.0],
    [0.0, 0.0, 1.0, 0.0],
    [0.0, 0.0, 0.0, 1.0]
],
  "dcmmeta_shape": [104, 104, 60, 477],
  "dcmmeta_slice_dim": 2,
  "dcmmeta_version": 0.6,
  "global": {
    "const": {
      "AcquisitionMatrix": [104, 0, 0, 104],
      "AngioFlag": "N",
      "BitsAllocated": 16,
      "BitsStored": 16,
      "BodyPartExamined": "BRAIN",
      "Columns": 832,
      "EchoNumbers": 1,
      "EchoTime": 37.0,
      "EchoTrainLength": 104,
      "FlipAngle": 52.0,
      "HighBit": 15,
      "ImageOrientationPatient": [0.99890612255503, -0.0410682184491, 0.02235977986228, 0.0464082798304, 0.92928516146937, -0.366436024752],
      "ImagePositionPatient": [-871.97315608981, -770.96408311017, 249.19283772576],
      "ImageType": [
        "ORIGINAL",
        "PRIMARY",
        "M",
        "MB",
        "ND",
        "MOSAIC"
],
      "ImagedNucleus": "1H",
      "ImagingFrequency": 123.259003,
      "InPlanePhaseEncodingDirection": "COL",
      "MRAcquisitionType": "2D",
      "MagneticFieldStrength": 3.0,
      "Manufacturer": "SIEMENS",
      "ManufacturerModelName": "Prisma_fit",
      "Modality": "MR",
      "NumberOfAverages": 1.0,
      "NumberOfPhaseEncodingSteps": 104,
      "PercentPhaseFieldOfView": 100.0,
      "PercentSampling": 100.0,
      "PerformedProcedureStepStartTime": "150305.160000",
      "PhotometricInterpretation": "MONOCHROME2",
      "PixelBandwidth": 2290.0,
      "PixelRepresentation": 0,
      "PixelSpacing": [2.0, 2.0],
      "ProtocolName": "func_task-shinobi_run-3",
      "RepetitionTime": 1490.0,
      "Rows": 832,
      "SAR": 0.03101671776334,
      "SamplesPerPixel": 1,
      "ScanOptions": "FS",
      "ScanningSequence": "EP",
      "SequenceName": "epfid2d1_104",
      "SequenceVariant": [
        "SK",
        "SS"
],
      "SeriesDescription": "func_task-shinobi_run-3",
      "SeriesNumber": 13,
      "SeriesTime": "154551.878000",
      "SliceLocation": -46.210986096686,
      "SliceThickness": 2.0,
      "SmallestImagePixelValue": 0,
      "SoftwareVersions": "syngo MR E11",
      "SpacingBetweenSlices": 2.000000022788,
      "SpecificCharacterSet": "ISO_IR 100",
      "StudyID": "1",
      "StudyTime": "150305.084000",
      "TransmitCoilName": "Body",
      "VariableFlipAngleFlag": "N",
      "WindowCenterWidthExplanation": "Algo1",
      "dBdt": 0.0},
    "slices": {}
  },
  "time": {
    "samples": {
      "AcquisitionNumber": [1, 2, 3, 4, 5, 6, 7, 8, 9, 10, 11, 12, 13, 14, 15, 16, 17, 18, 19, 20, 21, 22, 23, 24, 25, 26, 27, 28, 29, 30, 31, 32, 33, 34, 35, 36, 37, 38, 39, 40, 41, 42, 43, 44, 45, 46, 47, 48, 49, 50, 51, 52, 53, 54, 55, 56, 57, 58, 59, 60, 61, 62, 63, 64, 65, 66, 67, 68, 69, 70, 71, 72, 73, 74, 75, 76, 77, 78, 79, 80, 81, 82, 83, 84, 85, 86, 87, 88, 89, 90, 91, 92, 93, 94, 95, 96, 97, 98, 99, 100, 101, 102, 103, 104, 105, 106, 107, 108, 109, 110, 111, 112, 113, 114, 115, 116, 117, 118, 119, 120, 121, 122, 123, 124, 125, 126, 127, 128, 129, 130, 131, 132, 133, 134, 135, 136, 137, 138, 139, 140, 141, 142, 143, 144, 145, 146, 147, 148, 149, 150, 151, 152, 153, 154, 155, 156, 157, 158, 159, 160, 161, 162, 163, 164, 165, 166, 167, 168, 169, 170, 171, 172, 173, 174, 175, 176, 177, 178, 179, 180, 181, 182, 183, 184, 185, 186, 187, 188, 189, 190, 191, 192, 193, 194, 195, 196, 197, 198, 199, 200, 201, 202, 203, 204, 205, 206, 207, 208, 209, 210, 211, 212, 213, 214, 215, 216, 217, 218, 219, 220, 221, 222, 223, 224, 225, 226, 227, 228, 229, 230, 231, 232, 233, 234, 235, 236, 237, 238, 239, 240, 241, 242, 243, 244, 245, 246, 247, 248, 249, 250, 251, 252, 253, 254, 255, 256, 257, 258, 259, 260, 261, 262, 263, 264, 265, 266, 267, 268, 269, 270, 271, 272, 273, 274, 275, 276, 277, 278, 279, 280, 281, 282, 283, 284, 285, 286, 287, 288, 289, 290, 291, 292, 293, 294, 295, 296, 297, 298, 299, 300, 301, 302, 303, 304, 305, 306, 307, 308, 309, 310, 311, 312, 313, 314, 315, 316, 317, 318, 319, 320, 321, 322, 323, 324, 325, 326, 327, 328, 329, 330, 331, 332, 333, 334, 335, 336, 337, 338, 339, 340, 341, 342, 343, 344, 345, 346, 347, 348, 349, 350, 351, 352, 353, 354, 355, 356, 357, 358, 359, 360, 361, 362, 363, 364, 365, 366, 367, 368, 369, 370, 371, 372, 373, 374, 375, 376, 377, 378, 379, 380, 381, 382, 383, 384, 385, 386, 387, 388, 389, 390, 391, 392, 393, 394, 395, 396, 397, 398, 399, 400, 401, 402, 403, 404, 405, 406, 407, 408, 409, 410, 411, 412, 413, 414, 415, 416, 417, 418, 419, 420, 421, 422, 423, 424, 425, 426, 427, 428, 429, 430, 431, 432, 433, 434, 435, 436, 437, 438, 439, 440, 441, 442, 443, 444, 445, 446, 447, 448, 449, 450, 451, 452, 453, 454, 455, 456, 457, 458, 459, 460, 461, 462, 463, 464, 465, 466, 467, 468, 469, 470, 471, 472, 473, 474, 475, 476, 477],
      "AcquisitionTime": ["154447.332500", "154448.822500", "154450.312500", "154451.802500", "154453.292500", "154454.782500", "154456.272500", "154457.762500", "154459.252500", "154500.742500", "154502.232500", "154503.722500", "154505.212500", "154506.702500", "154508.192500", "154509.682500", "154511.172500", "154512.662500", "154514.152500", "154515.642500", "154517.132500", "154518.622500", "154520.112500", "154521.602500", "154523.092500", "154524.582500", "154526.072500", "154527.562500", "154529.052500", "154530.542500", "154532.032500", "154533.522500", "154535.012500", "154536.502500", "154537.992500", "154539.482500", "154540.972500", "154542.462500", "154543.952500", "154545.442500", "154546.932500", "154548.422500", "154549.912500", "154551.402500", "154552.892500", "154554.382500", "154555.872500", "154557.362500", "154558.852500", "154600.342500", "154601.832500", "154603.322500", "154604.812500", "154606.302500", "154607.792500", "154609.282500", "154610.772500", "154612.262500", "154613.752500", "154615.242500", "154616.732500", "154618.222500", "154619.712500", "154621.202500", "154622.692500", "154624.182500", "154625.672500", "154627.162500", "154628.652500", "154630.142500", "154631.632500", "154633.122500", "154634.612500", "154636.102500", "154637.592500", "154639.082500", "154640.572500", "154642.062500", "154643.552500", "154645.042500", "154646.532500", "154648.022500", "154649.512500", "154651.002500", "154652.492500", "154653.982500", "154655.472500", "154656.962500", "154658.452500", "154659.942500", "154701.432500", "154702.922500", "154704.412500", "154705.902500", "154707.392500", "154708.882500", "154710.372500", "154711.862500", "154713.352500", "154714.842500", "154716.332500", "154717.822500", "154719.312500", "154720.802500", "154722.292500", "154723.782500", "154725.272500", "154726.762500", "154728.252500", "154729.742500", "154731.232500", "154732.722500", "154734.212500", "154735.702500", "154737.192500", "154738.682500", "154740.172500", "154741.662500", "154743.152500", "154744.642500", "154746.132500", "154747.622500", "154749.112500", "154750.602500", "154752.092500", "154753.582500", "154755.072500", "154756.562500", "154758.052500", "154759.542500", "154801.032500", "154802.522500", "154804.012500", "154805.502500", "154806.992500", "154808.482500", "154809.972500", "154811.462500", "154812.952500", "154814.442500", "154815.932500", "154817.422500", "154818.912500", "154820.402500", "154821.892500", "154823.382500", "154824.872500", "154826.362500", "154827.852500", "154829.342500", "154830.832500", "154832.322500", "154833.812500", "154835.302500", "154836.792500", "154838.282500", "154839.772500", "154841.262500", "154842.752500", "154844.242500", "154845.732500", "154847.222500", "154848.712500", "154850.202500", "154851.692500", "154853.182500", "154854.672500", "154856.162500", "154857.652500", "154859.142500", "154900.632500", "154902.122500", "154903.612500", "154905.102500", "154906.592500", "154908.082500", "154909.572500", "154911.062500", "154912.552500", "154914.042500", "154915.532500", "154917.022500", "154918.512500", "154920.002500", "154921.492500", "154922.982500", "154924.472500", "154925.962500", "154927.452500", "154928.942500", "154930.432500", "154931.922500", "154933.412500", "154934.902500", "154936.392500", "154937.882500", "154939.372500", "154940.862500", "154942.352500", "154943.842500", "154945.332500", "154946.822500", "154948.312500", "154949.802500", "154951.292500", "154952.782500", "154954.272500", "154955.762500", "154957.252500", "154958.742500", "155000.232500", "155001.722500", "155003.212500", "155004.702500", "155006.192500", "155007.682500", "155009.172500", "155010.662500", "155012.152500", "155013.642500", "155015.132500", "155016.622500", "155018.112500", "155019.602500", "155021.092500", "155022.582500", "155024.072500", "155025.562500", "155027.052500", "155028.542500", "155030.032500", "155031.522500", "155033.012500", "155034.502500", "155035.992500", "155037.482500", "155038.972500", "155040.462500", "155041.952500", "155043.442500", "155044.932500", "155046.422500", "155047.912500", "155049.402500", "155050.892500", "155052.382500", "155053.872500", "155055.362500", "155056.852500", "155058.342500", "155059.832500", "155101.322500", "155102.812500", "155104.302500", "155105.792500", "155107.282500", "155108.772500", "155110.262500", "155111.752500", "155113.242500", "155114.732500", "155116.222500", "155117.712500", "155119.202500", "155120.692500", "155122.182500", "155123.672500", "155125.162500", "155126.652500", "155128.142500", "155129.632500", "155131.122500", "155132.612500", "155134.102500", "155135.592500", "155137.082500", "155138.572500", "155140.062500", "155141.552500", "155143.042500", "155144.532500", "155146.022500", "155147.512500", "155149.002500", "155150.492500", "155151.982500", "155153.472500", "155154.962500", "155156.452500", "155157.942500", "155159.432500", "155200.922500", "155202.412500", "155203.902500", "155205.392500", "155206.882500", "155208.372500", "155209.862500", "155211.352500", "155212.842500", "155214.332500", "155215.822500", "155217.312500", "155218.802500", "155220.292500", "155221.782500", "155223.272500", "155224.762500", "155226.252500", "155227.742500", "155229.232500", "155230.722500", "155232.212500", "155233.702500", "155235.192500", "155236.682500", "155238.172500", "155239.662500", "155241.152500", "155242.642500", "155244.132500", "155245.622500", "155247.112500", "155248.602500", "155250.092500", "155251.582500", "155253.072500", "155254.562500", "155256.052500", "155257.542500", "155259.032500", "155300.522500", "155302.012500", "155303.502500", "155304.992500", "155306.482500", "155307.972500", "155309.462500", "155310.952500", "155312.442500", "155313.932500", "155315.422500", "155316.912500", "155318.402500", "155319.892500", "155321.382500", "155322.872500", "155324.362500", "155325.852500", "155327.342500", "155328.832500", "155330.322500", "155331.812500", "155333.302500", "155334.792500", "155336.282500", "155337.772500", "155339.262500", "155340.752500", "155342.242500", "155343.732500", "155345.222500", "155346.712500", "155348.202500", "155349.692500", "155351.182500", "155352.672500", "155354.162500", "155355.652500", "155357.142500", "155358.632500", "155400.122500", "155401.612500", "155403.102500", "155404.592500", "155406.082500", "155407.572500", "155409.062500", "155410.552500", "155412.042500", "155413.532500", "155415.022500", "155416.512500", "155418.002500", "155419.492500", "155420.982500", "155422.472500", "155423.962500", "155425.452500", "155426.942500", "155428.432500", "155429.922500", "155431.412500", "155432.902500", "155434.392500", "155435.882500", "155437.372500", "155438.862500", "155440.352500", "155441.842500", "155443.332500", "155444.822500", "155446.312500", "155447.802500", "155449.292500", "155450.782500", "155452.272500", "155453.762500", "155455.252500", "155456.742500", "155458.232500", "155459.722500", "155501.212500", "155502.702500", "155504.192500", "155505.682500", "155507.172500", "155508.662500", "155510.152500", "155511.642500", "155513.132500", "155514.622500", "155516.112500", "155517.602500", "155519.092500", "155520.582500", "155522.072500", "155523.562500", "155525.052500", "155526.542500", "155528.032500", "155529.522500", "155531.012500", "155532.502500", "155533.992500", "155535.482500", "155536.972500", "155538.462500", "155539.952500", "155541.442500", "155542.932500", "155544.422500", "155545.912500", "155547.402500", "155548.892500", "155550.382500", "155551.872500", "155553.362500", "155554.852500", "155556.342500", "155557.832500", "155559.322500", "155600.812500", "155602.302500", "155603.792500", "155605.282500", "155606.772500", "155608.262500", "155609.752500", "155611.242500", "155612.732500", "155614.222500", "155615.712500", "155617.202500", "155618.692500", "155620.182500", "155621.672500", "155623.162500", "155624.652500", "155626.142500", "155627.632500", "155629.122500", "155630.612500", "155632.102500", "155633.592500", "155635.082500", "155636.572500"],
      "ContentTime": ["154551.880000", "154551.883000", "154551.886000", "154551.889000", "154551.892000", "154551.895000", "154551.897000", "154551.908000", "154551.911000", "154551.913000", "154611.841000", "154611.846000", "154611.849000", "154611.856000", "154611.858000", "154611.861000", "154611.864000", "154611.867000", "154611.870000", "154611.872000", "154611.875000", "154611.878000", "154611.881000", "154611.884000", "154611.887000", "154611.889000", "154611.896000", "154611.898000", "154611.901000", "154611.904000", "154631.841000", "154631.844000", "154631.846000", "154631.849000", "154631.852000", "154631.855000", "154631.858000", "154631.860000", "154631.863000", "154631.866000", "154631.869000", "154631.872000", "154631.875000", "154631.877000", "154631.880000", "154631.883000", "154631.886000", "154631.889000", "154631.892000", "154631.894000", "154651.841000", "154651.844000", "154651.847000", "154651.849000", "154651.852000", "154651.855000", "154651.858000", "154651.861000", "154651.863000", "154651.866000", "154651.869000", "154651.872000", "154651.875000", "154651.877000", "154651.880000", "154651.883000", "154651.886000", "154651.889000", "154651.891000", "154651.894000", "154711.841000", "154711.844000", "154711.846000", "154711.849000", "154711.852000", "154711.855000", "154711.858000", "154711.860000", "154711.863000", "154711.866000", "154711.869000", "154711.872000", "154711.874000", "154711.879000", "154711.889000", "154711.892000", "154711.895000", "154711.897000", "154711.900000", "154711.903000", "154731.841000", "154731.844000", "154731.847000", "154731.849000", "154731.852000", "154731.855000", "154731.858000", "154731.861000", "154731.871000", "154731.874000", "154731.876000", "154731.879000", "154731.882000", "154731.885000", "154731.887000", "154731.890000", "154731.907000", "154731.910000", "154731.913000", "154731.916000", "154811.841000", "154811.844000", "154811.846000", "154811.849000", "154811.852000", "154811.855000", "154811.858000", "154811.860000", "154811.863000", "154811.866000", "154811.869000", "154811.872000", "154811.875000", "154811.877000", "154811.880000", "154811.883000", "154811.886000", "154811.888000", "154811.891000", "154811.894000", "154811.897000", "154811.900000", "154811.902000", "154811.905000", "154811.908000", "154811.911000", "154811.914000", "154851.841000", "154851.844000", "154851.847000", "154851.850000", "154851.853000", "154851.856000", "154851.858000", "154851.861000", "154851.864000", "154851.867000", "154851.870000", "154851.873000", "154851.875000", "154851.878000", "154851.881000", "154851.884000", "154851.887000", "154851.889000", "154851.892000", "154851.895000", "154851.898000", "154851.901000", "154851.903000", "154851.906000", "154851.909000", "154851.912000", "154931.841000", "154931.844000", "154931.847000", "154931.850000", "154931.852000", "154931.855000", "154931.858000", "154931.861000", "154931.864000", "154931.866000", "154931.869000", "154931.872000", "154931.875000", "154931.878000", "154931.880000", "154931.883000", "154931.886000", "154931.889000", "154931.892000", "154931.895000", "154931.897000", "154931.900000", "154931.903000", "154931.906000", "154931.909000", "154931.912000", "154931.914000", "155011.841000", "155011.844000", "155011.847000", "155011.849000", "155011.852000", "155011.855000", "155011.858000", "155011.861000", "155011.864000", "155011.866000", "155011.869000", "155011.872000", "155011.875000", "155011.878000", "155011.880000", "155011.883000", "155011.886000", "155011.889000", "155011.891000", "155011.894000", "155011.897000", "155011.900000", "155011.903000", "155011.906000", "155011.908000", "155011.911000", "155011.914000", "155051.841000", "155051.844000", "155051.847000", "155051.850000", "155051.852000", "155051.855000", "155051.858000", "155051.861000", "155051.864000", "155051.867000", "155051.870000", "155051.872000", "155051.875000", "155051.878000", "155051.881000", "155051.884000", "155051.887000", "155051.890000", "155051.892000", "155051.895000", "155051.898000", "155051.901000", "155051.904000", "155051.907000", "155051.910000", "155051.912000", "155051.915000", "155131.841000", "155131.844000", "155131.847000", "155131.849000", "155131.852000", "155131.855000", "155131.858000", "155131.861000", "155131.863000", "155131.866000", "155131.869000", "155131.872000", "155131.875000", "155131.885000", "155131.888000", "155131.891000", "155131.894000", "155131.897000", "155131.899000", "155131.902000", "155131.905000", "155131.908000", "155131.911000", "155131.913000", "155131.916000", "155131.919000", "155131.922000", "155211.841000", "155211.844000", "155211.847000", "155211.850000", "155211.853000", "155211.856000", "155211.859000", "155211.862000", "155211.865000", "155211.867000", "155211.870000", "155211.873000", "155211.876000", "155211.879000", "155211.882000", "155211.885000", "155211.888000", "155211.891000", "155211.893000", "155211.896000", "155211.899000", "155211.902000", "155211.905000", "155211.908000", "155211.911000", "155211.914000", "155211.917000", "155251.841000", "155251.844000", "155251.847000", "155251.850000", "155251.852000", "155251.855000", "155251.858000", "155251.861000", "155251.864000", "155251.867000", "155251.869000", "155251.872000", "155251.875000", "155251.878000", "155251.881000", "155251.884000", "155251.886000", "155251.889000", "155251.892000", "155251.895000", "155251.898000", "155251.900000", "155251.903000", "155251.906000", "155251.909000", "155251.912000", "155251.915000", "155331.841000", "155331.844000", "155331.847000", "155331.850000", "155331.852000", "155331.855000", "155331.858000", "155331.861000", "155331.864000", "155331.867000", "155331.869000", "155331.872000", "155331.875000", "155331.878000", "155331.881000", "155331.884000", "155331.887000", "155331.889000", "155331.892000", "155331.895000", "155331.898000", "155331.901000", "155331.904000", "155331.906000", "155331.909000", "155331.912000", "155411.841000", "155411.844000", "155411.847000", "155411.850000", "155411.852000", "155411.855000", "155411.858000", "155411.861000", "155411.864000", "155411.867000", "155411.869000", "155411.872000", "155411.875000", "155411.878000", "155411.881000", "155411.884000", "155411.886000", "155411.889000", "155411.892000", "155411.895000", "155411.898000", "155411.901000", "155411.903000", "155411.906000", "155411.909000", "155411.912000", "155411.915000", "155451.841000", "155451.844000", "155451.847000", "155451.850000", "155451.852000", "155451.855000", "155451.858000", "155451.861000", "155451.864000", "155451.867000", "155451.870000", "155451.872000", "155451.875000", "155451.878000", "155451.881000", "155451.884000", "155451.887000", "155451.889000", "155451.892000", "155451.895000", "155451.898000", "155451.901000", "155451.904000", "155451.906000", "155451.909000", "155451.912000", "155451.915000", "155531.841000", "155531.844000", "155531.847000", "155531.850000", "155531.853000", "155531.855000", "155531.858000", "155531.861000", "155531.864000", "155531.867000", "155531.881000", "155531.884000", "155531.886000", "155531.889000", "155531.892000", "155531.895000", "155531.898000", "155531.900000", "155531.903000", "155531.906000", "155531.909000", "155531.912000", "155531.915000", "155531.918000", "155531.921000", "155531.923000", "155531.926000", "155611.841000", "155611.844000", "155611.847000", "155611.850000", "155611.852000", "155611.855000", "155611.858000", "155611.861000", "155611.864000", "155611.867000", "155611.869000", "155611.872000", "155611.875000", "155611.878000", "155611.881000", "155611.884000", "155611.886000", "155611.889000", "155611.892000", "155611.895000", "155611.898000", "155611.900000", "155611.903000", "155611.906000", "155611.909000", "155611.912000", "155611.915000", "155639.602000", "155639.606000", "155639.609000", "155639.612000", "155639.614000", "155639.617000", "155639.620000", "155639.623000", "155639.626000", "155639.629000", "155639.632000", "155639.634000", "155639.637000", "155639.640000", "155639.643000", "155639.646000", "155639.649000", "155639.651000"],
