{
  "AcquisitionMatrixPE": 104,
  "AcquisitionNumber": 1,
  "AcquisitionTime": "15:17:45.717500",
  "BandwidthPerPixelPhaseEncode": 17.17,
  "BaseResolution": 104,
  "BodyPartExamined": "BRAIN",
  "CoilString": "HC1-7;NC1_2",
  "ConsistencyInfo": "N4_VE11C_LATEST_20160120",
  "ConversionSoftware": "dcm2niix",
  "ConversionSoftwareVersion": "v1.0.20190902",
  "DerivedVendorReportedEchoSpacing": 0.000560011,
  "DeviceSerialNumber": "167006",
  "DwellTime": 2.1e-06,
  "EchoTime": 0.037,
  "EchoTrainLength": 104,
  "EffectiveEchoSpacing": 0.000560011,
  "FlipAngle": 52,
  "ImageComments": "Unaliased_MB4_PE3_LB",
  "ImageOrientationPatientDICOM": [0.998906, -0.0410682, 0.0223598, 0.0464083, 0.929285, -0.366436],
  "ImageType": [
    "ORIGINAL",
    "PRIMARY",
    "M",
    "MB",
    "ND",
    "MOSAIC"
],
  "ImagingFrequency": 123.259,
  "InPlanePhaseEncodingDirectionDICOM": "COL",
  "InstitutionAddress": "Chemin_Queen-Mary_4565_Montreal_District_CA_H3W_1W5",
  "InstitutionName": "IUGM",
  "InstitutionalDepartmentName": "Department",
  "MRAcquisitionType": "2D",
  "MagneticFieldStrength": 3,
  "Manufacturer": "Siemens",
  "ManufacturersModelName": "Prisma_fit",
  "Modality": "MR",
  "MultibandAccelerationFactor": 4,
  "PartialFourier": 1,
  "PatientPosition": "HFS",
  "PercentPhaseFOV": 100,
  "PhaseEncodingDirection": "j",
  "PhaseEncodingSteps": 104,
  "PhaseResolution": 1,
  "PixelBandwidth": 2290,
  "ProcedureStepDescription": "games_shinobi",
  "ProtocolName": "func_task-shinobi_run-1",
  "PulseSequenceDetails": "%CustomerSeq%_cmrr_mbep2d_bold",
  "ReceiveCoilActiveElements": "HC1-7;NC1,2",
  "ReceiveCoilName": "HeadNeck_64",
  "ReconMatrixPE": 104,
  "RepetitionTime": 1.49,
  "SAR": 0.0310167,
  "ScanOptions": "FS",
  "ScanningSequence": "EP",
  "SequenceName": "epfid2d1_104",
  "SequenceVariant": "SK_SS",
  "SeriesDescription": "func_task-shinobi_run-1",
  "SeriesNumber": 9,
  "ShimSetting": [639, -7250, -8858, 582, 35, -215, -97, -2],
  "SliceThickness": 2,
  "SliceTiming": [0, 0.785, 0.0975, 0.8825, 0.1975, 0.98, 0.295, 1.0775, 0.3925, 1.1775, 0.49, 1.275, 0.5875, 1.3725, 0.6875, 0, 0.785, 0.0975, 0.8825, 0.1975, 0.98, 0.295, 1.0775, 0.3925, 1.1775, 0.49, 1.275, 0.5875, 1.3725, 0.6875, 0, 0.785, 0.0975, 0.8825, 0.1975, 0.98, 0.295, 1.0775, 0.3925, 1.1775, 0.49, 1.275, 0.5875, 1.3725, 0.6875, 0, 0.785, 0.0975, 0.8825, 0.1975, 0.98, 0.295, 1.0775, 0.3925, 1.1775, 0.49, 1.275, 0.5875, 1.3725, 0.6875],
  "SoftwareVersions": "syngo_MR_E11",
  "SpacingBetweenSlices": 2,
  "StationName": "MRC35049",
  "TaskName": "shinobi",
  "TotalReadoutTime": 0.0576811,
  "TxRefAmp": 220.857,
  "WipMemBlock": "d0321164-25e6-4713-9ca5-c909f2a1c054||Sequence: R016 ve11c/master r/e634e98; Dec 19 2017 11:00:25 by eja",
  "dcmmeta_affine": [
    [-1.997812271118164, 0.092816561460495, 0.01145947352051735, 101.42416381835938],
    [0.08213643729686737, 1.8585703372955322, -0.7341457605361938, -67.09059143066406],
    [0.04471955820918083, 0.7328720688819885, 1.8603490591049194, -76.78048706054688],
    [0.0, 0.0, 0.0, 1.0]
],
  "dcmmeta_reorient_transform": [
    [0.0, -1.0, 0.0, 103.0],
    [1.0, 0.0, 0.0, 0.0],
    [0.0, 0.0, 1.0, 0.0],
    [0.0, 0.0, 0.0, 1.0]
],
  "dcmmeta_shape": [104, 104, 60, 521],
  "dcmmeta_slice_dim": 2,
  "dcmmeta_version": 0.6,
  "global": {
    "const": {
      "AcquisitionMatrix": [104, 0, 0, 104],
      "AngioFlag": "N",
      "BitsAllocated": 16,
      "BitsStored": 16,
      "BodyPartExamined": "BRAIN",
      "Columns": 832,
      "EchoNumbers": 1,
      "EchoTime": 37.0,
      "EchoTrainLength": 104,
      "FlipAngle": 52.0,
      "HighBit": 15,
      "ImageOrientationPatient": [0.99890612255503, -0.0410682184491, 0.02235977986228, 0.0464082798304, 0.92928516146937, -0.366436024752],
      "ImagePositionPatient": [-871.97315608981, -770.96408311017, 249.19283772576],
      "ImageType": [
        "ORIGINAL",
        "PRIMARY",
        "M",
        "MB",
        "ND",
        "MOSAIC"
],
      "ImagedNucleus": "1H",
      "ImagingFrequency": 123.258984,
      "InPlanePhaseEncodingDirection": "COL",
      "MRAcquisitionType": "2D",
      "MagneticFieldStrength": 3.0,
      "Manufacturer": "SIEMENS",
      "ManufacturerModelName": "Prisma_fit",
      "Modality": "MR",
      "NumberOfAverages": 1.0,
      "NumberOfPhaseEncodingSteps": 104,
      "PercentPhaseFieldOfView": 100.0,
      "PercentSampling": 100.0,
      "PerformedProcedureStepStartTime": "150305.160000",
      "PhotometricInterpretation": "MONOCHROME2",
      "PixelBandwidth": 2290.0,
      "PixelRepresentation": 0,
      "PixelSpacing": [2.0, 2.0],
      "ProtocolName": "func_task-shinobi_run-1",
      "RepetitionTime": 1490.0,
      "Rows": 832,
      "SAR": 0.03101671776334,
      "SamplesPerPixel": 1,
      "ScanOptions": "FS",
      "ScanningSequence": "EP",
      "SequenceName": "epfid2d1_104",
      "SequenceVariant": [
        "SK",
        "SS"
],
      "SeriesDescription": "func_task-shinobi_run-1",
      "SeriesNumber": 9,
      "SeriesTime": "151905.912000",
      "SliceLocation": -46.210986096686,
      "SliceThickness": 2.0,
      "SmallestImagePixelValue": 0,
      "SoftwareVersions": "syngo MR E11",
      "SpacingBetweenSlices": 2.000000022788,
      "SpecificCharacterSet": "ISO_IR 100",
      "StudyID": "1",
      "StudyTime": "150305.084000",
      "TransmitCoilName": "Body",
      "VariableFlipAngleFlag": "N",
      "WindowCenterWidthExplanation": "Algo1",
      "dBdt": 0.0},
    "slices": {}
  },
  "time": {
    "samples": {
      "AcquisitionNumber": [1, 2, 3, 4, 5, 6, 7, 8, 9, 10, 11, 12, 13, 14, 15, 16, 17, 18, 19, 20, 21, 22, 23, 24, 25, 26, 27, 28, 29, 30, 31, 32, 33, 34, 35, 36, 37, 38, 39, 40, 41, 42, 43, 44, 45, 46, 47, 48, 49, 50, 51, 52, 53, 54, 55, 56, 57, 58, 59, 60, 61, 62, 63, 64, 65, 66, 67, 68, 69, 70, 71, 72, 73, 74, 75, 76, 77, 78, 79, 80, 81, 82, 83, 84, 85, 86, 87, 88, 89, 90, 91, 92, 93, 94, 95, 96, 97, 98, 99, 100, 101, 102, 103, 104, 105, 106, 107, 108, 109, 110, 111, 112, 113, 114, 115, 116, 117, 118, 119, 120, 121, 122, 123, 124, 125, 126, 127, 128, 129, 130, 131, 132, 133, 134, 135, 136, 137, 138, 139, 140, 141, 142, 143, 144, 145, 146, 147, 148, 149, 150, 151, 152, 153, 154, 155, 156, 157, 158, 159, 160, 161, 162, 163, 164, 165, 166, 167, 168, 169, 170, 171, 172, 173, 174, 175, 176, 177, 178, 179, 180, 181, 182, 183, 184, 185, 186, 187, 188, 189, 190, 191, 192, 193, 194, 195, 196, 197, 198, 199, 200, 201, 202, 203, 204, 205, 206, 207, 208, 209, 210, 211, 212, 213, 214, 215, 216, 217, 218, 219, 220, 221, 222, 223, 224, 225, 226, 227, 228, 229, 230, 231, 232, 233, 234, 235, 236, 237, 238, 239, 240, 241, 242, 243, 244, 245, 246, 247, 248, 249, 250, 251, 252, 253, 254, 255, 256, 257, 258, 259, 260, 261, 262, 263, 264, 265, 266, 267, 268, 269, 270, 271, 272, 273, 274, 275, 276, 277, 278, 279, 280, 281, 282, 283, 284, 285, 286, 287, 288, 289, 290, 291, 292, 293, 294, 295, 296, 297, 298, 299, 300, 301, 302, 303, 304, 305, 306, 307, 308, 309, 310, 311, 312, 313, 314, 315, 316, 317, 318, 319, 320, 321, 322, 323, 324, 325, 326, 327, 328, 329, 330, 331, 332, 333, 334, 335, 336, 337, 338, 339, 340, 341, 342, 343, 344, 345, 346, 347, 348, 349, 350, 351, 352, 353, 354, 355, 356, 357, 358, 359, 360, 361, 362, 363, 364, 365, 366, 367, 368, 369, 370, 371, 372, 373, 374, 375, 376, 377, 378, 379, 380, 381, 382, 383, 384, 385, 386, 387, 388, 389, 390, 391, 392, 393, 394, 395, 396, 397, 398, 399, 400, 401, 402, 403, 404, 405, 406, 407, 408, 409, 410, 411, 412, 413, 414, 415, 416, 417, 418, 419, 420, 421, 422, 423, 424, 425, 426, 427, 428, 429, 430, 431, 432, 433, 434, 435, 436, 437, 438, 439, 440, 441, 442, 443, 444, 445, 446, 447, 448, 449, 450, 451, 452, 453, 454, 455, 456, 457, 458, 459, 460, 461, 462, 463, 464, 465, 466, 467, 468, 469, 470, 471, 472, 473, 474, 475, 476, 477, 478, 479, 480, 481, 482, 483, 484, 485, 486, 487, 488, 489, 490, 491, 492, 493, 494, 495, 496, 497, 498, 499, 500, 501, 502, 503, 504, 505, 506, 507, 508, 509, 510, 511, 512, 513, 514, 515, 516, 517, 518, 519, 520, 521],
      "AcquisitionTime": ["151745.717500", "151747.207500", "151748.697500", "151750.187500", "151751.677500", "151753.167500", "151754.657500", "151756.147500", "151757.637500", "151759.127500", "151800.617500", "151802.107500", "151803.597500", "151805.087500", "151806.577500", "151808.067500", "151809.557500", "151811.047500", "151812.537500", "151814.027500", "151815.517500", "151817.007500", "151818.497500", "151819.987500", "151821.477500", "151822.967500", "151824.457500", "151825.947500", "151827.437500", "151828.927500", "151830.417500", "151831.907500", "151833.397500", "151834.887500", "151836.377500", "151837.867500", "151839.357500", "151840.847500", "151842.337500", "151843.827500", "151845.317500", "151846.807500", "151848.297500", "151849.787500", "151851.277500", "151852.767500", "151854.257500", "151855.747500", "151857.237500", "151858.727500", "151900.217500", "151901.707500", "151903.197500", "151904.687500", "151906.177500", "151907.667500", "151909.157500", "151910.647500", "151912.137500", "151913.627500", "151915.117500", "151916.607500", "151918.097500", "151919.587500", "151921.077500", "151922.567500", "151924.057500", "151925.547500", "151927.037500", "151928.527500", "151930.017500", "151931.507500", "151932.997500", "151934.487500", "151935.977500", "151937.467500", "151938.957500", "151940.447500", "151941.937500", "151943.427500", "151944.917500", "151946.407500", "151947.897500", "151949.387500", "151950.877500", "151952.367500", "151953.857500", "151955.347500", "151956.837500", "151958.327500", "151959.817500", "152001.307500", "152002.797500", "152004.287500", "152005.777500", "152007.267500", "152008.757500", "152010.247500", "152011.737500", "152013.227500", "152014.717500", "152016.207500", "152017.697500", "152019.187500", "152020.677500", "152022.167500", "152023.657500", "152025.147500", "152026.637500", "152028.127500", "152029.617500", "152031.107500", "152032.597500", "152034.087500", "152035.577500", "152037.067500", "152038.557500", "152040.047500", "152041.537500", "152043.027500", "152044.517500", "152046.007500", "152047.497500", "152048.987500", "152050.477500", "152051.967500", "152053.457500", "152054.947500", "152056.437500", "152057.927500", "152059.417500", "152100.907500", "152102.397500", "152103.887500", "152105.377500", "152106.867500", "152108.357500", "152109.847500", "152111.337500", "152112.827500", "152114.317500", "152115.807500", "152117.297500", "152118.787500", "152120.277500", "152121.767500", "152123.257500", "152124.747500", "152126.237500", "152127.727500", "152129.217500", "152130.707500", "152132.197500", "152133.687500", "152135.177500", "152136.667500", "152138.157500", "152139.647500", "152141.137500", "152142.627500", "152144.117500", "152145.607500", "152147.097500", "152148.587500", "152150.077500", "152151.567500", "152153.057500", "152154.547500", "152156.037500", "152157.527500", "152159.017500", "152200.507500", "152201.997500", "152203.487500", "152204.977500", "152206.467500", "152207.957500", "152209.447500", "152210.937500", "152212.427500", "152213.917500", "152215.407500", "152216.897500", "152218.387500", "152219.877500", "152221.367500", "152222.857500", "152224.347500", "152225.837500", "152227.327500", "152228.817500", "152230.307500", "152231.797500", "152233.287500", "152234.777500", "152236.267500", "152237.757500", "152239.247500", "152240.737500", "152242.227500", "152243.717500", "152245.207500", "152246.697500", "152248.187500", "152249.677500", "152251.167500", "152252.657500", "152254.147500", "152255.637500", "152257.127500", "152258.617500", "152300.107500", "152301.597500", "152303.087500", "152304.577500", "152306.067500", "152307.557500", "152309.047500", "152310.537500", "152312.027500", "152313.517500", "152315.007500", "152316.497500", "152317.987500", "152319.477500", "152320.967500", "152322.457500", "152323.947500", "152325.437500", "152326.927500", "152328.417500", "152329.907500", "152331.397500", "152332.887500", "152334.377500", "152335.867500", "152337.357500", "152338.847500", "152340.337500", "152341.827500", "152343.317500", "152344.807500", "152346.297500", "152347.787500", "152349.277500", "152350.767500", "152352.257500", "152353.747500", "152355.237500", "152356.727500", "152358.217500", "152359.707500", "152401.197500", "152402.687500", "152404.177500", "152405.667500", "152407.157500", "152408.647500", "152410.137500", "152411.627500", "152413.117500", "152414.607500", "152416.097500", "152417.587500", "152419.077500", "152420.567500", "152422.057500", "152423.547500", "152425.037500", "152426.527500", "152428.017500", "152429.507500", "152430.997500", "152432.487500", "152433.977500", "152435.467500", "152436.957500", "152438.447500", "152439.937500", "152441.427500", "152442.917500", "152444.407500", "152445.897500", "152447.387500", "152448.877500", "152450.367500", "152451.857500", "152453.347500", "152454.837500", "152456.327500", "152457.817500", "152459.307500", "152500.797500", "152502.287500", "152503.777500", "152505.267500", "152506.757500", "152508.247500", "152509.737500", "152511.227500", "152512.717500", "152514.207500", "152515.697500", "152517.187500", "152518.677500", "152520.167500", "152521.657500", "152523.147500", "152524.637500", "152526.127500", "152527.617500", "152529.107500", "152530.597500", "152532.087500", "152533.577500", "152535.067500", "152536.557500", "152538.047500", "152539.537500", "152541.027500", "152542.517500", "152544.007500", "152545.497500", "152546.987500", "152548.477500", "152549.967500", "152551.457500", "152552.947500", "152554.437500", "152555.927500", "152557.417500", "152558.907500", "152600.397500", "152601.887500", "152603.377500", "152604.867500", "152606.357500", "152607.847500", "152609.337500", "152610.827500", "152612.317500", "152613.807500", "152615.297500", "152616.787500", "152618.277500", "152619.767500", "152621.257500", "152622.747500", "152624.237500", "152625.727500", "152627.217500", "152628.707500", "152630.197500", "152631.687500", "152633.177500", "152634.667500", "152636.157500", "152637.647500", "152639.137500", "152640.627500", "152642.117500", "152643.607500", "152645.097500", "152646.587500", "152648.077500", "152649.567500", "152651.057500", "152652.547500", "152654.037500", "152655.527500", "152657.017500", "152658.507500", "152659.997500", "152701.487500", "152702.977500", "152704.467500", "152705.957500", "152707.447500", "152708.937500", "152710.427500", "152711.917500", "152713.407500", "152714.897500", "152716.387500", "152717.877500", "152719.367500", "152720.857500", "152722.347500", "152723.837500", "152725.327500", "152726.817500", "152728.307500", "152729.797500", "152731.287500", "152732.777500", "152734.267500", "152735.757500", "152737.247500", "152738.737500", "152740.227500", "152741.717500", "152743.207500", "152744.697500", "152746.187500", "152747.677500", "152749.167500", "152750.657500", "152752.147500", "152753.637500", "152755.127500", "152756.617500", "152758.107500", "152759.597500", "152801.087500", "152802.577500", "152804.067500", "152805.557500", "152807.047500", "152808.537500", "152810.027500", "152811.517500", "152813.007500", "152814.497500", "152815.987500", "152817.477500", "152818.967500", "152820.457500", "152821.947500", "152823.437500", "152824.927500", "152826.417500", "152827.907500", "152829.397500", "152830.887500", "152832.377500", "152833.867500", "152835.357500", "152836.847500", "152838.337500", "152839.827500", "152841.317500", "152842.807500", "152844.297500", "152845.787500", "152847.277500", "152848.767500", "152850.257500", "152851.747500", "152853.237500", "152854.727500", "152856.217500", "152857.707500", "152859.197500", "152900.687500", "152902.177500", "152903.667500", "152905.157500", "152906.647500", "152908.137500", "152909.627500", "152911.117500", "152912.607500", "152914.097500", "152915.587500", "152917.077500", "152918.567500", "152920.057500", "152921.547500", "152923.037500", "152924.527500", "152926.017500", "152927.507500", "152928.997500", "152930.487500", "152931.977500", "152933.467500", "152934.957500", "152936.447500", "152937.937500", "152939.427500", "152940.917500", "152942.407500", "152943.897500", "152945.387500", "152946.877500", "152948.367500", "152949.857500", "152951.347500", "152952.837500", "152954.327500", "152955.817500", "152957.307500", "152958.797500", "153000.287500", "153001.777500", "153003.267500", "153004.757500", "153006.247500", "153007.737500", "153009.227500", "153010.717500", "153012.207500", "153013.697500", "153015.187500", "153016.677500", "153018.167500", "153019.657500", "153021.147500", "153022.637500", "153024.127500", "153025.617500", "153027.107500", "153028.597500", "153030.087500", "153031.577500", "153033.067500", "153034.557500", "153036.047500", "153037.537500", "153039.027500", "153040.517500"],
      "ContentTime": ["151905.914000", "151905.917000", "151905.920000", "151905.930000", "151905.933000", "151905.936000", "151905.939000", "151905.942000", "151905.944000", "151905.947000", "151905.950000", "151905.953000", "151905.956000", "151905.958000", "151905.961000", "151905.964000", "151905.967000", "151905.970000", "151905.973000", "151905.975000", "151905.982000", "151905.985000", "151905.988000", "151905.990000", "151905.993000", "151906.005000", "151925.880000", "151925.883000", "151925.886000", "151925.889000", "151925.891000", "151925.894000", "151925.897000", "151925.900000", "151925.903000", "151925.905000", "151925.919000", "151925.922000", "151925.924000", "151925.927000", "151925.930000", "151925.933000", "151925.936000", "151925.938000", "151925.941000", "151925.944000", "151925.947000", "151945.880000", "151945.883000", "151945.886000", "151945.888000", "151945.891000", "151945.894000", "151945.897000", "151945.900000", "151945.902000", "151945.905000", "151945.908000", "151945.911000", "151945.914000", "151945.916000", "151945.919000", "151945.922000", "151945.925000", "151945.928000", "151945.930000", "151945.933000", "152005.881000", "152005.884000", "152005.887000", "152005.889000", "152005.892000", "152005.895000", "152005.898000", "152005.901000", "152005.904000", "152005.907000", "152005.909000", "152005.912000", "152005.915000", "152005.918000", "152005.921000", "152005.924000", "152005.926000", "152005.929000", "152005.932000", "152005.935000", "152025.881000", "152025.884000", "152025.886000", "152025.889000", "152025.892000", "152025.895000", "152025.898000", "152025.901000", "152025.903000", "152025.906000", "152025.909000", "152025.912000", "152025.915000", "152025.917000", "152025.920000", "152025.923000", "152025.926000", "152025.929000", "152025.931000", "152025.934000", "152105.880000", "152105.883000", "152105.886000", "152105.889000", "152105.891000", "152105.894000", "152105.897000", "152105.900000", "152105.902000", "152105.905000", "152105.908000", "152105.911000", "152105.914000", "152105.917000", "152105.919000", "152105.922000", "152105.925000", "152105.928000", "152105.931000", "152105.933000", "152105.936000", "152105.939000", "152105.942000", "152105.945000", "152105.947000", "152105.950000", "152105.953000", "152145.880000", "152145.883000", "152145.886000", "152145.888000", "152145.891000", "152145.894000", "152145.897000", "152145.900000", "152145.902000", "152145.905000", "152145.908000", "152145.911000", "152145.914000", "152145.917000", "152145.919000", "152145.922000", "152145.925000", "152145.928000", "152145.931000", "152145.934000", "152145.936000", "152145.939000", "152145.942000", "152145.945000", "152145.948000", "152145.950000", "152145.953000", "152225.881000", "152225.885000", "152225.888000", "152225.891000", "152225.894000", "152225.896000", "152225.899000", "152225.902000", "152225.905000", "152225.908000", "152225.910000", "152225.913000", "152225.916000", "152225.919000", "152225.922000", "152225.924000", "152225.927000", "152225.930000", "152225.933000", "152225.936000", "152225.939000", "152225.942000", "152225.944000", "152225.947000", "152225.950000", "152225.953000", "152305.880000", "152305.883000", "152305.886000", "152305.888000", "152305.891000", "152305.894000", "152305.897000", "152305.900000", "152305.902000", "152305.905000", "152305.908000", "152305.911000", "152305.914000", "152305.917000", "152305.919000", "152305.922000", "152305.925000", "152305.928000", "152305.931000", "152305.933000", "152305.937000", "152305.939000", "152305.942000", "152305.945000", "152305.948000", "152305.951000", "152305.954000", "152345.880000", "152345.883000", "152345.886000", "152345.888000", "152345.891000", "152345.894000", "152345.897000", "152345.900000", "152345.903000", "152345.906000", "152345.908000", "152345.911000", "152345.914000", "152345.931000", "152345.933000", "152345.936000", "152345.939000", "152345.942000", "152345.945000", "152345.947000", "152345.950000", "152345.953000", "152345.956000", "152345.959000", "152345.962000", "152345.964000", "152345.967000", "152425.880000", "152425.883000", "152425.886000", "152425.888000", "152425.891000", "152425.894000", "152425.906000", "152425.909000", "152425.911000", "152425.914000", "152425.917000", "152425.920000", "152425.923000", "152425.925000", "152425.928000", "152425.931000", "152425.934000", "152425.937000", "152425.939000", "152425.942000", "152425.945000", "152425.948000", "152425.951000", "152425.953000", "152425.956000", "152425.959000", "152425.962000", "152505.881000", "152505.884000", "152505.887000", "152505.889000", "152505.892000", "152505.895000", "152505.898000", "152505.901000", "152505.904000", "152505.906000", "152505.909000", "152505.912000", "152505.915000", "152505.918000", "152505.921000", "152505.924000", "152505.926000", "152505.929000", "152505.932000", "152505.935000", "152505.937000", "152505.940000", "152505.943000", "152505.946000", "152505.949000", "152505.952000", "152505.954000", "152545.880000", "152545.883000", "152545.886000", "152545.889000", "152545.891000", "152545.894000", "152545.897000", "152545.900000", "152545.903000", "152545.905000", "152545.908000", "152545.911000", "152545.914000", "152545.917000", "152545.920000", "152545.922000", "152545.925000", "152545.928000", "152545.931000", "152545.934000", "152545.936000", "152545.939000", "152545.942000", "152545.945000", "152545.948000", "152545.950000", "152545.953000", "152625.880000", "152625.914000", "152625.917000", "152625.919000", "152625.922000", "152625.925000", "152625.928000", "152625.931000", "152625.933000", "152625.936000", "152625.939000", "152625.942000", "152625.945000", "152625.947000", "152625.950000", "152625.953000", "152625.956000", "152625.959000", "152625.962000", "152625.964000", "152625.967000", "152625.970000", "152625.973000", "152625.976000", "152625.978000", "152625.981000", "152705.881000", "152705.884000", "152705.887000", "152705.890000", "152705.892000", "152705.895000", "152705.898000", "152705.901000", "152705.904000", "152705.907000", "152705.909000", "152705.912000", "152705.915000", "152705.918000", "152705.921000", "152705.924000", "152705.926000", "152705.929000", "152705.932000", "152705.935000", "152705.938000", "152705.940000", "152705.943000", "152705.946000", "152705.949000", "152705.952000", "152705.954000", "152745.880000", "152745.883000", "152745.886000", "152745.888000", "152745.891000", "152745.894000", "152745.897000", "152745.900000", "152745.903000", "152745.906000", "152745.908000", "152745.911000", "152745.914000", "152745.917000", "152745.920000", "152745.923000", "152745.925000", "152745.928000", "152745.931000", "152745.934000", "152745.937000", "152745.940000", "152745.942000", "152745.945000", "152745.948000", "152745.951000", "152745.954000", "152825.880000", "152825.883000", "152825.886000", "152825.888000", "152825.891000", "152825.894000", "152825.897000", "152825.900000", "152825.903000", "152825.905000", "152825.908000", "152825.911000", "152825.914000", "152825.931000", "152825.934000", "152825.936000", "152825.939000", "152825.942000", "152825.945000", "152825.948000", "152825.951000", "152825.953000", "152825.956000", "152825.959000", "152825.962000", "152825.965000", "152825.967000", "152905.880000", "152905.883000", "152905.886000", "152905.888000", "152905.891000", "152905.894000", "152905.897000", "152905.900000", "152905.903000", "152905.905000", "152905.908000", "152905.911000", "152905.914000", "152905.917000", "152905.920000", "152905.923000", "152905.926000", "152905.929000", "152905.931000", "152905.934000", "152905.937000", "152905.940000", "152905.943000", "152905.945000", "152905.948000", "152905.951000", "152905.954000", "152945.881000", "152945.884000", "152945.887000", "152945.890000", "152945.903000", "152945.905000", "152945.908000", "152945.911000", "152945.914000", "152945.917000", "152945.920000", "152945.922000", "152945.925000", "152945.928000", "152945.931000", "152945.934000", "152945.937000", "152945.939000", "152945.942000", "152945.945000", "152945.948000", "152945.951000", "152945.953000", "152945.956000", "152945.959000", "152945.962000", "152945.965000", "153025.880000", "153025.883000", "153025.886000", "153025.889000", "153025.891000", "153025.894000", "153025.897000", "153025.900000", "153025.903000", "153025.906000", "153025.908000", "153025.911000", "153025.914000", "153025.917000", "153025.920000", "153025.923000", "153025.926000", "153025.928000", "153025.931000", "153025.934000", "153025.937000", "153025.940000", "153025.942000", "153025.945000", "153025.948000", "153025.951000", "153025.954000", "153042.221000", "153042.224000", "153042.227000", "153042.230000", "153042.232000", "153042.235000", "153042.238000", "153042.241000", "153042.244000", "153042.246000", "153042.249000"],
