{
  "AcquisitionMatrixPE": 104,
  "AcquisitionNumber": 1,
  "AcquisitionTime": "16:03:19.087500",
  "BandwidthPerPixelPhaseEncode": 17.17,
  "BaseResolution": 104,
  "BodyPartExamined": "BRAIN",
  "CoilString": "HC1-7;NC1_2",
  "ConsistencyInfo": "N4_VE11C_LATEST_20160120",
  "ConversionSoftware": "dcm2niix",
  "ConversionSoftwareVersion": "v1.0.20190902",
  "DerivedVendorReportedEchoSpacing": 0.000560011,
  "DeviceSerialNumber": "167006",
  "DwellTime": 2.1e-06,
  "EchoTime": 0.037,
  "EchoTrainLength": 104,
  "EffectiveEchoSpacing": 0.000560011,
  "FlipAngle": 52,
  "ImageComments": "Unaliased_MB4_PE3_LB",
  "ImageOrientationPatientDICOM": [0.99793, -0.0518229, 0.0380732, 0.062085, 0.930691, -0.360499],
  "ImageType": [
    "ORIGINAL",
    "PRIMARY",
    "M",
    "MB",
    "ND",
    "MOSAIC"
],
  "ImagingFrequency": 123.259,
  "InPlanePhaseEncodingDirectionDICOM": "COL",
  "InstitutionAddress": "Chemin_Queen-Mary_4565_Montreal_District_CA_H3W_1W5",
  "InstitutionName": "IUGM",
  "InstitutionalDepartmentName": "Department",
  "MRAcquisitionType": "2D",
  "MagneticFieldStrength": 3,
  "Manufacturer": "Siemens",
  "ManufacturersModelName": "Prisma_fit",
  "Modality": "MR",
  "MultibandAccelerationFactor": 4,
  "PartialFourier": 1,
  "PatientPosition": "HFS",
  "PercentPhaseFOV": 100,
  "PhaseEncodingDirection": "j",
  "PhaseEncodingSteps": 104,
  "PhaseResolution": 1,
  "PixelBandwidth": 2290,
  "ProcedureStepDescription": "games_shinobi",
  "ProtocolName": "func_task-shinobi_run-4",
  "PulseSequenceDetails": "%CustomerSeq%_cmrr_mbep2d_bold",
  "ReceiveCoilActiveElements": "HC1-7;NC1,2",
  "ReceiveCoilName": "HeadNeck_64",
  "ReconMatrixPE": 104,
  "RepetitionTime": 1.49,
  "SAR": 0.0320902,
  "ScanOptions": "FS",
  "ScanningSequence": "EP",
  "SequenceName": "epfid2d1_104",
  "SequenceVariant": "SK_SS",
  "SeriesDescription": "func_task-shinobi_run-4",
  "SeriesNumber": 15,
  "ShimSetting": [636, -7254, -8855, 589, 11, -244, -97, -15],
  "SliceThickness": 2,
  "SliceTiming": [0, 0.7825, 0.0975, 0.88, 0.195, 0.98, 0.2925, 1.0775, 0.39, 1.175, 0.49, 1.2725, 0.5875, 1.37, 0.685, 0, 0.7825, 0.0975, 0.88, 0.195, 0.98, 0.2925, 1.0775, 0.39, 1.175, 0.49, 1.2725, 0.5875, 1.37, 0.685, 0, 0.7825, 0.0975, 0.88, 0.195, 0.98, 0.2925, 1.0775, 0.39, 1.175, 0.49, 1.2725, 0.5875, 1.37, 0.685, 0, 0.7825, 0.0975, 0.88, 0.195, 0.98, 0.2925, 1.0775, 0.39, 1.175, 0.49, 1.2725, 0.5875, 1.37, 0.685],
  "SoftwareVersions": "syngo_MR_E11",
  "SpacingBetweenSlices": 2,
  "StationName": "MRC35049",
  "TaskName": "shinobi",
  "TotalReadoutTime": 0.0576811,
  "TxRefAmp": 222.043,
  "WipMemBlock": "11b7f0d7-49a2-4791-8bf8-af42c55ce111||Sequence: R016 ve11c/master r/e634e98; Dec 19 2017 11:00:25 by eja",
  "dcmmeta_affine": [
    [-1.9958605766296387, 0.1241699829697609, 0.03350447863340378, 99.6183853149414],
    [0.10364586114883423, 1.861382007598877, -0.724233865737915, -68.03466796875],
    [0.07614637166261673, 0.7209985852241516, 1.8639642000198364, -75.73094940185547],
    [0.0, 0.0, 0.0, 1.0]
],
  "dcmmeta_reorient_transform": [
    [0.0, -1.0, 0.0, 103.0],
    [1.0, 0.0, 0.0, 0.0],
    [0.0, 0.0, 1.0, 0.0],
    [0.0, 0.0, 0.0, 1.0]
],
  "dcmmeta_shape": [104, 104, 60, 561],
  "dcmmeta_slice_dim": 2,
  "dcmmeta_version": 0.6,
  "global": {
    "const": {
      "AcquisitionMatrix": [104, 0, 0, 104],
      "AngioFlag": "N",
      "BitsAllocated": 16,
      "BitsStored": 16,
      "BodyPartExamined": "BRAIN",
      "Columns": 832,
      "EchoNumbers": 1,
      "EchoTime": 37.0,
      "EchoTrainLength": 104,
      "FlipAngle": 52.0,
      "HighBit": 15,
      "ImageOrientationPatient": [0.99793026631243, -0.0518229304334, 0.03807318556284, 0.06208499036561, 0.93069098281056, -0.3604993044188],
      "ImagePositionPatient": [-884.09899981338, -763.50361996845, 233.25812271553],
      "ImageType": [
        "ORIGINAL",
        "PRIMARY",
        "M",
        "MB",
        "ND",
        "MOSAIC"
],
      "ImagedNucleus": "1H",
      "ImagingFrequency": 123.259003,
      "InPlanePhaseEncodingDirection": "COL",
      "MRAcquisitionType": "2D",
      "MagneticFieldStrength": 3.0,
      "Manufacturer": "SIEMENS",
      "ManufacturerModelName": "Prisma_fit",
      "Modality": "MR",
      "NumberOfAverages": 1.0,
      "NumberOfPhaseEncodingSteps": 104,
      "PercentPhaseFieldOfView": 100.0,
      "PercentSampling": 100.0,
      "PerformedProcedureStepStartTime": "144934.184000",
      "PhotometricInterpretation": "MONOCHROME2",
      "PixelBandwidth": 2290.0,
      "PixelRepresentation": 0,
      "PixelSpacing": [2.0, 2.0],
      "ProtocolName": "func_task-shinobi_run-4",
      "RepetitionTime": 1490.0,
      "Rows": 832,
      "SAR": 0.03209019757993,
      "SamplesPerPixel": 1,
      "ScanOptions": "FS",
      "ScanningSequence": "EP",
      "SequenceName": "epfid2d1_104",
      "SequenceVariant": [
        "SK",
        "SS"
],
      "SeriesDescription": "func_task-shinobi_run-4",
      "SeriesNumber": 15,
      "SeriesTime": "160451.324000",
      "SliceLocation": -44.274554756672,
      "SliceThickness": 2.0,
      "SmallestImagePixelValue": 0,
      "SoftwareVersions": "syngo MR E11",
      "SpacingBetweenSlices": 1.9999999498724,
      "SpecificCharacterSet": "ISO_IR 100",
      "StudyID": "1",
      "StudyTime": "144934.096000",
      "TransmitCoilName": "Body",
      "VariableFlipAngleFlag": "N",
      "WindowCenterWidthExplanation": "Algo1",
      "dBdt": 0.0},
    "slices": {}
  },
  "time": {
    "samples": {
      "AcquisitionNumber": [1, 2, 3, 4, 5, 6, 7, 8, 9, 10, 11, 12, 13, 14, 15, 16, 17, 18, 19, 20, 21, 22, 23, 24, 25, 26, 27, 28, 29, 30, 31, 32, 33, 34, 35, 36, 37, 38, 39, 40, 41, 42, 43, 44, 45, 46, 47, 48, 49, 50, 51, 52, 53, 54, 55, 56, 57, 58, 59, 60, 61, 62, 63, 64, 65, 66, 67, 68, 69, 70, 71, 72, 73, 74, 75, 76, 77, 78, 79, 80, 81, 82, 83, 84, 85, 86, 87, 88, 89, 90, 91, 92, 93, 94, 95, 96, 97, 98, 99, 100, 101, 102, 103, 104, 105, 106, 107, 108, 109, 110, 111, 112, 113, 114, 115, 116, 117, 118, 119, 120, 121, 122, 123, 124, 125, 126, 127, 128, 129, 130, 131, 132, 133, 134, 135, 136, 137, 138, 139, 140, 141, 142, 143, 144, 145, 146, 147, 148, 149, 150, 151, 152, 153, 154, 155, 156, 157, 158, 159, 160, 161, 162, 163, 164, 165, 166, 167, 168, 169, 170, 171, 172, 173, 174, 175, 176, 177, 178, 179, 180, 181, 182, 183, 184, 185, 186, 187, 188, 189, 190, 191, 192, 193, 194, 195, 196, 197, 198, 199, 200, 201, 202, 203, 204, 205, 206, 207, 208, 209, 210, 211, 212, 213, 214, 215, 216, 217, 218, 219, 220, 221, 222, 223, 224, 225, 226, 227, 228, 229, 230, 231, 232, 233, 234, 235, 236, 237, 238, 239, 240, 241, 242, 243, 244, 245, 246, 247, 248, 249, 250, 251, 252, 253, 254, 255, 256, 257, 258, 259, 260, 261, 262, 263, 264, 265, 266, 267, 268, 269, 270, 271, 272, 273, 274, 275, 276, 277, 278, 279, 280, 281, 282, 283, 284, 285, 286, 287, 288, 289, 290, 291, 292, 293, 294, 295, 296, 297, 298, 299, 300, 301, 302, 303, 304, 305, 306, 307, 308, 309, 310, 311, 312, 313, 314, 315, 316, 317, 318, 319, 320, 321, 322, 323, 324, 325, 326, 327, 328, 329, 330, 331, 332, 333, 334, 335, 336, 337, 338, 339, 340, 341, 342, 343, 344, 345, 346, 347, 348, 349, 350, 351, 352, 353, 354, 355, 356, 357, 358, 359, 360, 361, 362, 363, 364, 365, 366, 367, 368, 369, 370, 371, 372, 373, 374, 375, 376, 377, 378, 379, 380, 381, 382, 383, 384, 385, 386, 387, 388, 389, 390, 391, 392, 393, 394, 395, 396, 397, 398, 399, 400, 401, 402, 403, 404, 405, 406, 407, 408, 409, 410, 411, 412, 413, 414, 415, 416, 417, 418, 419, 420, 421, 422, 423, 424, 425, 426, 427, 428, 429, 430, 431, 432, 433, 434, 435, 436, 437, 438, 439, 440, 441, 442, 443, 444, 445, 446, 447, 448, 449, 450, 451, 452, 453, 454, 455, 456, 457, 458, 459, 460, 461, 462, 463, 464, 465, 466, 467, 468, 469, 470, 471, 472, 473, 474, 475, 476, 477, 478, 479, 480, 481, 482, 483, 484, 485, 486, 487, 488, 489, 490, 491, 492, 493, 494, 495, 496, 497, 498, 499, 500, 501, 502, 503, 504, 505, 506, 507, 508, 509, 510, 511, 512, 513, 514, 515, 516, 517, 518, 519, 520, 521, 522, 523, 524, 525, 526, 527, 528, 529, 530, 531, 532, 533, 534, 535, 536, 537, 538, 539, 540, 541, 542, 543, 544, 545, 546, 547, 548, 549, 550, 551, 552, 553, 554, 555, 556, 557, 558, 559, 560, 561],
      "AcquisitionTime": ["160319.087500", "160320.577500", "160322.067500", "160323.557500", "160325.047500", "160326.537500", "160328.027500", "160329.517500", "160331.007500", "160332.497500", "160333.987500", "160335.477500", "160336.967500", "160338.457500", "160339.947500", "160341.437500", "160342.927500", "160344.417500", "160345.907500", "160347.397500", "160348.887500", "160350.377500", "160351.867500", "160353.357500", "160354.847500", "160356.337500", "160357.827500", "160359.317500", "160400.807500", "160402.297500", "160403.787500", "160405.277500", "160406.767500", "160408.257500", "160409.747500", "160411.237500", "160412.727500", "160414.217500", "160415.707500", "160417.197500", "160418.687500", "160420.177500", "160421.667500", "160423.157500", "160424.647500", "160426.137500", "160427.627500", "160429.117500", "160430.607500", "160432.097500", "160433.587500", "160435.077500", "160436.567500", "160438.057500", "160439.547500", "160441.037500", "160442.527500", "160444.017500", "160445.507500", "160446.997500", "160448.487500", "160449.977500", "160451.467500", "160452.957500", "160454.447500", "160455.937500", "160457.427500", "160458.917500", "160500.407500", "160501.897500", "160503.387500", "160504.877500", "160506.367500", "160507.857500", "160509.347500", "160510.837500", "160512.327500", "160513.817500", "160515.307500", "160516.797500", "160518.287500", "160519.777500", "160521.267500", "160522.757500", "160524.247500", "160525.737500", "160527.227500", "160528.717500", "160530.207500", "160531.697500", "160533.187500", "160534.677500", "160536.167500", "160537.657500", "160539.147500", "160540.637500", "160542.127500", "160543.617500", "160545.107500", "160546.597500", "160548.087500", "160549.577500", "160551.067500", "160552.557500", "160554.047500", "160555.537500", "160557.027500", "160558.517500", "160600.007500", "160601.497500", "160602.987500", "160604.477500", "160605.967500", "160607.457500", "160608.947500", "160610.437500", "160611.927500", "160613.417500", "160614.907500", "160616.397500", "160617.887500", "160619.377500", "160620.867500", "160622.357500", "160623.847500", "160625.337500", "160626.827500", "160628.317500", "160629.807500", "160631.297500", "160632.787500", "160634.277500", "160635.767500", "160637.257500", "160638.747500", "160640.237500", "160641.727500", "160643.217500", "160644.707500", "160646.197500", "160647.687500", "160649.177500", "160650.667500", "160652.157500", "160653.647500", "160655.137500", "160656.627500", "160658.117500", "160659.607500", "160701.097500", "160702.587500", "160704.077500", "160705.567500", "160707.057500", "160708.547500", "160710.037500", "160711.527500", "160713.017500", "160714.507500", "160715.997500", "160717.487500", "160718.977500", "160720.467500", "160721.957500", "160723.447500", "160724.937500", "160726.427500", "160727.917500", "160729.407500", "160730.897500", "160732.387500", "160733.877500", "160735.367500", "160736.857500", "160738.347500", "160739.837500", "160741.327500", "160742.817500", "160744.307500", "160745.797500", "160747.287500", "160748.777500", "160750.267500", "160751.757500", "160753.247500", "160754.737500", "160756.227500", "160757.717500", "160759.207500", "160800.697500", "160802.187500", "160803.677500", "160805.167500", "160806.657500", "160808.147500", "160809.637500", "160811.127500", "160812.617500", "160814.107500", "160815.597500", "160817.087500", "160818.577500", "160820.067500", "160821.557500", "160823.047500", "160824.537500", "160826.027500", "160827.517500", "160829.007500", "160830.497500", "160831.987500", "160833.477500", "160834.967500", "160836.457500", "160837.947500", "160839.437500", "160840.927500", "160842.417500", "160843.907500", "160845.397500", "160846.887500", "160848.377500", "160849.867500", "160851.357500", "160852.847500", "160854.337500", "160855.827500", "160857.317500", "160858.807500", "160900.297500", "160901.787500", "160903.277500", "160904.767500", "160906.257500", "160907.747500", "160909.237500", "160910.727500", "160912.217500", "160913.707500", "160915.197500", "160916.687500", "160918.177500", "160919.667500", "160921.157500", "160922.647500", "160924.137500", "160925.627500", "160927.117500", "160928.607500", "160930.097500", "160931.587500", "160933.077500", "160934.567500", "160936.057500", "160937.547500", "160939.037500", "160940.527500", "160942.017500", "160943.507500", "160944.997500", "160946.487500", "160947.977500", "160949.467500", "160950.957500", "160952.447500", "160953.937500", "160955.427500", "160956.917500", "160958.407500", "160959.897500", "161001.387500", "161002.877500", "161004.367500", "161005.857500", "161007.347500", "161008.837500", "161010.327500", "161011.817500", "161013.307500", "161014.797500", "161016.287500", "161017.777500", "161019.267500", "161020.757500", "161022.247500", "161023.737500", "161025.227500", "161026.717500", "161028.207500", "161029.697500", "161031.187500", "161032.677500", "161034.167500", "161035.657500", "161037.147500", "161038.637500", "161040.127500", "161041.617500", "161043.107500", "161044.597500", "161046.087500", "161047.577500", "161049.067500", "161050.557500", "161052.047500", "161053.537500", "161055.027500", "161056.517500", "161058.007500", "161059.497500", "161100.987500", "161102.477500", "161103.967500", "161105.457500", "161106.947500", "161108.437500", "161109.927500", "161111.417500", "161112.907500", "161114.397500", "161115.887500", "161117.377500", "161118.867500", "161120.357500", "161121.847500", "161123.337500", "161124.827500", "161126.317500", "161127.807500", "161129.297500", "161130.787500", "161132.277500", "161133.767500", "161135.257500", "161136.747500", "161138.237500", "161139.727500", "161141.217500", "161142.707500", "161144.197500", "161145.687500", "161147.177500", "161148.667500", "161150.157500", "161151.647500", "161153.137500", "161154.627500", "161156.117500", "161157.607500", "161159.097500", "161200.587500", "161202.077500", "161203.567500", "161205.057500", "161206.547500", "161208.037500", "161209.527500", "161211.017500", "161212.507500", "161213.997500", "161215.487500", "161216.977500", "161218.467500", "161219.957500", "161221.447500", "161222.937500", "161224.427500", "161225.917500", "161227.407500", "161228.897500", "161230.387500", "161231.877500", "161233.367500", "161234.857500", "161236.347500", "161237.837500", "161239.327500", "161240.817500", "161242.307500", "161243.797500", "161245.287500", "161246.777500", "161248.267500", "161249.757500", "161251.247500", "161252.737500", "161254.227500", "161255.717500", "161257.207500", "161258.697500", "161300.187500", "161301.677500", "161303.167500", "161304.657500", "161306.147500", "161307.637500", "161309.127500", "161310.617500", "161312.107500", "161313.597500", "161315.087500", "161316.577500", "161318.067500", "161319.557500", "161321.047500", "161322.537500", "161324.027500", "161325.517500", "161327.007500", "161328.497500", "161329.987500", "161331.477500", "161332.967500", "161334.457500", "161335.947500", "161337.437500", "161338.927500", "161340.417500", "161341.907500", "161343.397500", "161344.887500", "161346.377500", "161347.867500", "161349.357500", "161350.847500", "161352.337500", "161353.827500", "161355.317500", "161356.807500", "161358.297500", "161359.787500", "161401.277500", "161402.767500", "161404.257500", "161405.747500", "161407.237500", "161408.727500", "161410.217500", "161411.707500", "161413.197500", "161414.687500", "161416.177500", "161417.667500", "161419.157500", "161420.647500", "161422.137500", "161423.627500", "161425.117500", "161426.607500", "161428.097500", "161429.587500", "161431.077500", "161432.567500", "161434.057500", "161435.547500", "161437.037500", "161438.527500", "161440.017500", "161441.507500", "161442.997500", "161444.487500", "161445.977500", "161447.467500", "161448.957500", "161450.447500", "161451.937500", "161453.427500", "161454.917500", "161456.407500", "161457.897500", "161459.387500", "161500.877500", "161502.367500", "161503.857500", "161505.347500", "161506.837500", "161508.327500", "161509.817500", "161511.307500", "161512.797500", "161514.287500", "161515.777500", "161517.267500", "161518.757500", "161520.247500", "161521.737500", "161523.227500", "161524.717500", "161526.207500", "161527.697500", "161529.187500", "161530.677500", "161532.167500", "161533.657500", "161535.147500", "161536.637500", "161538.127500", "161539.617500", "161541.107500", "161542.597500", "161544.087500", "161545.577500", "161547.067500", "161548.557500", "161550.047500", "161551.537500", "161553.027500", "161554.517500", "161556.007500", "161557.497500", "161558.987500", "161600.477500", "161601.967500", "161603.457500", "161604.947500", "161606.437500", "161607.927500", "161609.417500", "161610.907500", "161612.397500", "161613.887500", "161615.377500", "161616.867500", "161618.357500", "161619.847500", "161621.337500", "161622.827500", "161624.317500", "161625.807500", "161627.297500", "161628.787500", "161630.277500", "161631.767500", "161633.257500", "161634.747500", "161636.237500", "161637.727500", "161639.217500", "161640.707500", "161642.197500", "161643.687500", "161645.177500", "161646.667500", "161648.157500", "161649.647500", "161651.137500", "161652.627500", "161654.117500", "161655.607500", "161657.097500", "161658.587500", "161700.077500", "161701.567500", "161703.057500", "161704.547500", "161706.037500", "161707.527500", "161709.017500", "161710.507500", "161711.997500", "161713.487500"],
      "ContentTime": ["160451.327000", "160451.331000", "160451.334000", "160451.336000", "160451.339000", "160451.342000", "160451.345000", "160451.348000", "160451.351000", "160451.354000", "160451.357000", "160451.369000", "160451.373000", "160451.381000", "160451.385000", "160451.388000", "160451.391000", "160451.394000", "160451.397000", "160451.400000", "160451.403000", "160451.406000", "160451.409000", "160451.412000", "160451.415000", "160451.418000", "160451.430000", "160451.433000", "160451.436000", "160451.439000", "160451.442000", "160451.445000", "160451.447000", "160451.450000", "160451.453000", "160511.295000", "160511.298000", "160511.301000", "160511.304000", "160511.307000", "160511.310000", "160511.313000", "160511.316000", "160511.319000", "160511.321000", "160511.324000", "160511.327000", "160511.330000", "160511.333000", "160511.336000", "160511.339000", "160511.342000", "160511.345000", "160511.348000", "160511.351000", "160511.354000", "160531.295000", "160531.298000", "160531.301000", "160531.304000", "160531.307000", "160531.309000", "160531.313000", "160531.315000", "160531.318000", "160531.321000", "160531.324000", "160531.327000", "160531.330000", "160531.333000", "160531.336000", "160531.339000", "160531.342000", "160531.345000", "160531.348000", "160531.351000", "160551.295000", "160551.298000", "160551.301000", "160551.304000", "160551.307000", "160551.310000", "160551.313000", "160551.316000", "160551.319000", "160551.322000", "160551.325000", "160551.328000", "160551.331000", "160551.333000", "160551.337000", "160551.340000", "160551.342000", "160551.345000", "160551.348000", "160551.351000", "160631.296000", "160631.299000", "160631.302000", "160631.305000", "160631.308000", "160631.311000", "160631.314000", "160631.317000", "160631.320000", "160631.323000", "160631.326000", "160631.329000", "160631.331000", "160631.334000", "160631.337000", "160631.340000", "160631.343000", "160631.346000", "160631.349000", "160631.352000", "160631.355000", "160631.358000", "160631.372000", "160631.375000", "160631.378000", "160631.381000", "160631.384000", "160631.387000", "160631.389000", "160631.392000", "160631.395000", "160631.398000", "160711.295000", "160711.298000", "160711.301000", "160711.304000", "160711.307000", "160711.310000", "160711.313000", "160711.316000", "160711.319000", "160711.321000", "160711.324000", "160711.327000", "160711.330000", "160711.333000", "160711.336000", "160711.339000", "160711.342000", "160711.345000", "160711.348000", "160711.351000", "160711.354000", "160711.357000", "160711.359000", "160711.362000", "160711.365000", "160711.368000", "160711.371000", "160751.295000", "160751.298000", "160751.301000", "160751.304000", "160751.307000", "160751.310000", "160751.313000", "160751.316000", "160751.319000", "160751.322000", "160751.324000", "160751.328000", "160751.331000", "160751.334000", "160751.337000", "160751.340000", "160751.342000", "160751.345000", "160751.348000", "160751.351000", "160751.354000", "160751.357000", "160751.360000", "160751.363000", "160751.366000", "160751.369000", "160751.371000", "160831.295000", "160831.298000", "160831.301000", "160831.304000", "160831.307000", "160831.310000", "160831.313000", "160831.316000", "160831.319000", "160831.322000", "160831.325000", "160831.328000", "160831.330000", "160831.333000", "160831.337000", "160831.339000", "160831.342000", "160831.345000", "160831.348000", "160831.351000", "160831.354000", "160831.357000", "160831.360000", "160831.363000", "160831.366000", "160831.369000", "160831.372000", "160911.296000", "160911.299000", "160911.302000", "160911.305000", "160911.308000", "160911.311000", "160911.314000", "160911.317000", "160911.320000", "160911.323000", "160911.326000", "160911.329000", "160911.332000", "160911.335000", "160911.337000", "160911.340000", "160911.343000", "160911.346000", "160911.349000", "160911.352000", "160911.355000", "160911.359000", "160911.362000", "160911.365000", "160911.368000", "160911.371000", "160951.295000", "160951.298000", "160951.301000", "160951.304000", "160951.307000", "160951.310000", "160951.313000", "160951.316000", "160951.319000", "160951.321000", "160951.324000", "160951.327000", "160951.330000", "160951.333000", "160951.336000", "160951.339000", "160951.342000", "160951.345000", "160951.348000", "160951.351000", "160951.354000", "160951.357000", "160951.360000", "160951.363000", "160951.366000", "160951.369000", "160951.372000", "161031.295000", "161031.298000", "161031.301000", "161031.304000", "161031.307000", "161031.310000", "161031.313000", "161031.316000", "161031.319000", "161031.322000", "161031.325000", "161031.328000", "161031.331000", "161031.334000", "161031.337000", "161031.340000", "161031.342000", "161031.345000", "161031.348000", "161031.351000", "161031.354000", "161031.357000", "161031.360000", "161031.363000", "161031.366000", "161031.369000", "161031.372000", "161111.296000", "161111.299000", "161111.302000", "161111.305000", "161111.308000", "161111.311000", "161111.314000", "161111.317000", "161111.320000", "161111.323000", "161111.326000", "161111.329000", "161111.332000", "161111.335000", "161111.338000", "161111.340000", "161111.343000", "161111.346000", "161111.349000", "161111.352000", "161111.355000", "161111.358000", "161111.361000", "161111.364000", "161111.376000", "161111.379000", "161111.382000", "161151.295000", "161151.298000", "161151.301000", "161151.304000", "161151.307000", "161151.310000", "161151.313000", "161151.316000", "161151.319000", "161151.322000", "161151.325000", "161151.328000", "161151.331000", "161151.334000", "161151.337000", "161151.339000", "161151.343000", "161151.348000", "161151.351000", "161151.354000", "161151.357000", "161151.360000", "161151.362000", "161151.365000", "161151.369000", "161151.371000", "161151.374000", "161231.295000", "161231.298000", "161231.301000", "161231.304000", "161231.307000", "161231.310000", "161231.313000", "161231.316000", "161231.319000", "161231.322000", "161231.325000", "161231.328000", "161231.331000", "161231.334000", "161231.337000", "161231.340000", "161231.343000", "161231.346000", "161231.349000", "161231.352000", "161231.354000", "161231.357000", "161231.360000", "161231.363000", "161231.366000", "161231.369000", "161231.372000", "161251.295000", "161251.298000", "161251.301000", "161251.304000", "161251.307000", "161251.310000", "161251.313000", "161251.316000", "161251.319000", "161251.322000", "161251.325000", "161251.328000", "161251.331000", "161331.296000", "161331.299000", "161331.302000", "161331.305000", "161331.309000", "161331.312000", "161331.315000", "161331.318000", "161331.321000", "161331.324000", "161331.327000", "161331.330000", "161331.333000", "161331.336000", "161331.339000", "161331.342000", "161331.345000", "161331.348000", "161331.351000", "161331.354000", "161331.357000", "161331.360000", "161331.363000", "161331.366000", "161331.369000", "161331.372000", "161331.374000", "161411.295000", "161411.298000", "161411.301000", "161411.304000", "161411.307000", "161411.310000", "161411.313000", "161411.316000", "161411.319000", "161411.322000", "161411.325000", "161411.328000", "161411.331000", "161411.334000", "161411.337000", "161411.340000", "161411.343000", "161411.346000", "161411.349000", "161411.352000", "161411.354000", "161411.357000", "161411.360000", "161411.363000", "161411.366000", "161411.369000", "161411.372000", "161451.295000", "161451.298000", "161451.301000", "161451.304000", "161451.307000", "161451.310000", "161451.313000", "161451.316000", "161451.319000", "161451.322000", "161451.325000", "161451.328000", "161451.331000", "161451.334000", "161451.337000", "161451.340000", "161451.343000", "161451.346000", "161451.349000", "161451.352000", "161451.355000", "161451.358000", "161451.361000", "161451.364000", "161451.367000", "161451.370000", "161451.373000", "161531.295000", "161531.298000", "161531.302000", "161531.305000", "161531.308000", "161531.311000", "161531.314000", "161531.317000", "161531.320000", "161531.323000", "161531.326000", "161531.329000", "161531.332000", "161531.335000", "161531.338000", "161531.341000", "161531.344000", "161531.347000", "161531.350000", "161531.362000", "161531.365000", "161531.368000", "161531.371000", "161531.374000", "161531.377000", "161531.380000", "161611.296000", "161611.299000", "161611.302000", "161611.305000", "161611.308000", "161611.311000", "161611.314000", "161611.317000", "161611.320000", "161611.323000", "161611.326000", "161611.329000", "161611.332000", "161611.335000", "161611.338000", "161611.341000", "161611.344000", "161611.347000", "161611.350000", "161611.353000", "161611.356000", "161611.359000", "161611.362000", "161611.365000", "161611.367000", "161611.370000", "161611.373000", "161651.295000", "161651.298000", "161651.301000", "161651.304000", "161651.307000", "161651.310000", "161651.313000", "161651.316000", "161651.319000", "161651.322000", "161651.325000", "161651.328000", "161651.331000", "161651.334000", "161651.337000", "161651.340000", "161651.343000", "161651.346000", "161651.349000", "161651.352000", "161651.355000", "161651.358000", "161651.361000", "161651.364000", "161651.367000", "161651.370000", "161651.373000", "161715.808000", "161715.811000", "161715.814000", "161715.817000", "161715.828000", "161715.831000", "161715.834000", "161715.837000", "161715.841000", "161715.843000", "161715.846000", "161715.849000", "161715.852000", "161715.855000", "161715.858000", "161715.861000", "161715.864000"],
