{
  "AcquisitionMatrixPE": 104,
  "AcquisitionNumber": 1,
  "AcquisitionTime": "15:36:21.622500",
  "BandwidthPerPixelPhaseEncode": 17.17,
  "BaseResolution": 104,
  "BodyPartExamined": "BRAIN",
  "CoilString": "HC1-7;NC1_2",
  "ConsistencyInfo": "N4_VE11C_LATEST_20160120",
  "ConversionSoftware": "dcm2niix",
  "ConversionSoftwareVersion": "v1.0.20190902",
  "DerivedVendorReportedEchoSpacing": 0.000560011,
  "DeviceSerialNumber": "167006",
  "DwellTime": 2.1e-06,
  "EchoTime": 0.037,
  "EchoTrainLength": 104,
  "EffectiveEchoSpacing": 0.000560011,
  "FlipAngle": 52,
  "ImageComments": "Unaliased_MB4_PE3_LB",
  "ImageOrientationPatientDICOM": [0.99793, -0.0518229, 0.0380732, 0.062085, 0.930691, -0.360499],
  "ImageType": [
    "ORIGINAL",
    "PRIMARY",
    "M",
    "MB",
    "ND",
    "MOSAIC"
],
  "ImagingFrequency": 123.259,
  "InPlanePhaseEncodingDirectionDICOM": "COL",
  "InstitutionAddress": "Chemin_Queen-Mary_4565_Montreal_District_CA_H3W_1W5",
  "InstitutionName": "IUGM",
  "InstitutionalDepartmentName": "Department",
  "MRAcquisitionType": "2D",
  "MagneticFieldStrength": 3,
  "Manufacturer": "Siemens",
  "ManufacturersModelName": "Prisma_fit",
  "Modality": "MR",
  "MultibandAccelerationFactor": 4,
  "PartialFourier": 1,
  "PatientPosition": "HFS",
  "PercentPhaseFOV": 100,
  "PhaseEncodingDirection": "j",
  "PhaseEncodingSteps": 104,
  "PhaseResolution": 1,
  "PixelBandwidth": 2290,
  "ProcedureStepDescription": "games_shinobi",
  "ProtocolName": "func_task-shinobi_run-2",
  "PulseSequenceDetails": "%CustomerSeq%_cmrr_mbep2d_bold",
  "ReceiveCoilActiveElements": "HC1-7;NC1,2",
  "ReceiveCoilName": "HeadNeck_64",
  "ReconMatrixPE": 104,
  "RepetitionTime": 1.49,
  "SAR": 0.0320902,
  "ScanOptions": "FS",
  "ScanningSequence": "EP",
  "SequenceName": "epfid2d1_104",
  "SequenceVariant": "SK_SS",
  "SeriesDescription": "func_task-shinobi_run-2",
  "SeriesNumber": 11,
  "ShimSetting": [636, -7254, -8855, 589, 11, -244, -97, -15],
  "SliceThickness": 2,
  "SliceTiming": [0, 0.785, 0.1, 0.8825, 0.1975, 0.98, 0.295, 1.08, 0.3925, 1.1775, 0.49, 1.275, 0.59, 1.3725, 0.6875, 0, 0.785, 0.1, 0.8825, 0.1975, 0.98, 0.295, 1.08, 0.3925, 1.1775, 0.49, 1.275, 0.59, 1.3725, 0.6875, 0, 0.785, 0.1, 0.8825, 0.1975, 0.98, 0.295, 1.08, 0.3925, 1.1775, 0.49, 1.275, 0.59, 1.3725, 0.6875, 0, 0.785, 0.1, 0.8825, 0.1975, 0.98, 0.295, 1.08, 0.3925, 1.1775, 0.49, 1.275, 0.59, 1.3725, 0.6875],
  "SoftwareVersions": "syngo_MR_E11",
  "SpacingBetweenSlices": 2,
  "StationName": "MRC35049",
  "TaskName": "shinobi",
  "TotalReadoutTime": 0.0576811,
  "TxRefAmp": 222.043,
  "WipMemBlock": "bcf4ddcb-d0ff-4ed2-a5cf-21c1ff947e6f||Sequence: R016 ve11c/master r/e634e98; Dec 19 2017 11:00:25 by eja",
  "dcmmeta_affine": [
    [-1.9958605766296387, 0.1241699829697609, 0.03350447863340378, 99.6183853149414],
    [0.10364586114883423, 1.861382007598877, -0.724233865737915, -68.03466796875],
    [0.07614637166261673, 0.7209985852241516, 1.8639642000198364, -75.73094940185547],
    [0.0, 0.0, 0.0, 1.0]
],
  "dcmmeta_reorient_transform": [
    [0.0, -1.0, 0.0, 103.0],
    [1.0, 0.0, 0.0, 0.0],
    [0.0, 0.0, 1.0, 0.0],
    [0.0, 0.0, 0.0, 1.0]
],
  "dcmmeta_shape": [104, 104, 60, 528],
  "dcmmeta_slice_dim": 2,
  "dcmmeta_version": 0.6,
  "global": {
    "const": {
      "AcquisitionMatrix": [104, 0, 0, 104],
      "AngioFlag": "N",
      "BitsAllocated": 16,
      "BitsStored": 16,
      "BodyPartExamined": "BRAIN",
      "Columns": 832,
      "EchoNumbers": 1,
      "EchoTime": 37.0,
      "EchoTrainLength": 104,
      "FlipAngle": 52.0,
      "HighBit": 15,
      "ImageOrientationPatient": [0.99793026631243, -0.0518229304334, 0.03807318556284, 0.06208499036561, 0.93069098281056, -0.3604993044188],
      "ImagePositionPatient": [-884.09899981338, -763.50361996845, 233.25812271553],
      "ImageType": [
        "ORIGINAL",
        "PRIMARY",
        "M",
        "MB",
        "ND",
        "MOSAIC"
],
      "ImagedNucleus": "1H",
      "ImagingFrequency": 123.258993,
      "InPlanePhaseEncodingDirection": "COL",
      "MRAcquisitionType": "2D",
      "MagneticFieldStrength": 3.0,
      "Manufacturer": "SIEMENS",
      "ManufacturerModelName": "Prisma_fit",
      "Modality": "MR",
      "NumberOfAverages": 1.0,
      "NumberOfPhaseEncodingSteps": 104,
      "PercentPhaseFieldOfView": 100.0,
      "PercentSampling": 100.0,
      "PerformedProcedureStepStartTime": "144934.184000",
      "PhotometricInterpretation": "MONOCHROME2",
      "PixelBandwidth": 2290.0,
      "PixelRepresentation": 0,
      "PixelSpacing": [2.0, 2.0],
      "ProtocolName": "func_task-shinobi_run-2",
      "RepetitionTime": 1490.0,
      "Rows": 832,
      "SAR": 0.03209019757993,
      "SamplesPerPixel": 1,
      "ScanOptions": "FS",
      "ScanningSequence": "EP",
      "SequenceName": "epfid2d1_104",
      "SequenceVariant": [
        "SK",
        "SS"
],
      "SeriesDescription": "func_task-shinobi_run-2",
      "SeriesNumber": 11,
      "SeriesTime": "153754.666000",
      "SliceLocation": -44.274554756672,
      "SliceThickness": 2.0,
      "SmallestImagePixelValue": 0,
      "SoftwareVersions": "syngo MR E11",
      "SpacingBetweenSlices": 1.9999999498724,
      "SpecificCharacterSet": "ISO_IR 100",
      "StudyID": "1",
      "StudyTime": "144934.096000",
      "TransmitCoilName": "Body",
      "VariableFlipAngleFlag": "N",
      "WindowCenterWidthExplanation": "Algo1",
      "dBdt": 0.0},
    "slices": {}
  },
  "time": {
    "samples": {
      "AcquisitionNumber": [1, 2, 3, 4, 5, 6, 7, 8, 9, 10, 11, 12, 13, 14, 15, 16, 17, 18, 19, 20, 21, 22, 23, 24, 25, 26, 27, 28, 29, 30, 31, 32, 33, 34, 35, 36, 37, 38, 39, 40, 41, 42, 43, 44, 45, 46, 47, 48, 49, 50, 51, 52, 53, 54, 55, 56, 57, 58, 59, 60, 61, 62, 63, 64, 65, 66, 67, 68, 69, 70, 71, 72, 73, 74, 75, 76, 77, 78, 79, 80, 81, 82, 83, 84, 85, 86, 87, 88, 89, 90, 91, 92, 93, 94, 95, 96, 97, 98, 99, 100, 101, 102, 103, 104, 105, 106, 107, 108, 109, 110, 111, 112, 113, 114, 115, 116, 117, 118, 119, 120, 121, 122, 123, 124, 125, 126, 127, 128, 129, 130, 131, 132, 133, 134, 135, 136, 137, 138, 139, 140, 141, 142, 143, 144, 145, 146, 147, 148, 149, 150, 151, 152, 153, 154, 155, 156, 157, 158, 159, 160, 161, 162, 163, 164, 165, 166, 167, 168, 169, 170, 171, 172, 173, 174, 175, 176, 177, 178, 179, 180, 181, 182, 183, 184, 185, 186, 187, 188, 189, 190, 191, 192, 193, 194, 195, 196, 197, 198, 199, 200, 201, 202, 203, 204, 205, 206, 207, 208, 209, 210, 211, 212, 213, 214, 215, 216, 217, 218, 219, 220, 221, 222, 223, 224, 225, 226, 227, 228, 229, 230, 231, 232, 233, 234, 235, 236, 237, 238, 239, 240, 241, 242, 243, 244, 245, 246, 247, 248, 249, 250, 251, 252, 253, 254, 255, 256, 257, 258, 259, 260, 261, 262, 263, 264, 265, 266, 267, 268, 269, 270, 271, 272, 273, 274, 275, 276, 277, 278, 279, 280, 281, 282, 283, 284, 285, 286, 287, 288, 289, 290, 291, 292, 293, 294, 295, 296, 297, 298, 299, 300, 301, 302, 303, 304, 305, 306, 307, 308, 309, 310, 311, 312, 313, 314, 315, 316, 317, 318, 319, 320, 321, 322, 323, 324, 325, 326, 327, 328, 329, 330, 331, 332, 333, 334, 335, 336, 337, 338, 339, 340, 341, 342, 343, 344, 345, 346, 347, 348, 349, 350, 351, 352, 353, 354, 355, 356, 357, 358, 359, 360, 361, 362, 363, 364, 365, 366, 367, 368, 369, 370, 371, 372, 373, 374, 375, 376, 377, 378, 379, 380, 381, 382, 383, 384, 385, 386, 387, 388, 389, 390, 391, 392, 393, 394, 395, 396, 397, 398, 399, 400, 401, 402, 403, 404, 405, 406, 407, 408, 409, 410, 411, 412, 413, 414, 415, 416, 417, 418, 419, 420, 421, 422, 423, 424, 425, 426, 427, 428, 429, 430, 431, 432, 433, 434, 435, 436, 437, 438, 439, 440, 441, 442, 443, 444, 445, 446, 447, 448, 449, 450, 451, 452, 453, 454, 455, 456, 457, 458, 459, 460, 461, 462, 463, 464, 465, 466, 467, 468, 469, 470, 471, 472, 473, 474, 475, 476, 477, 478, 479, 480, 481, 482, 483, 484, 485, 486, 487, 488, 489, 490, 491, 492, 493, 494, 495, 496, 497, 498, 499, 500, 501, 502, 503, 504, 505, 506, 507, 508, 509, 510, 511, 512, 513, 514, 515, 516, 517, 518, 519, 520, 521, 522, 523, 524, 525, 526, 527, 528],
      "AcquisitionTime": ["153621.622500", "153623.112500", "153624.602500", "153626.092500", "153627.582500", "153629.072500", "153630.562500", "153632.052500", "153633.542500", "153635.032500", "153636.522500", "153638.012500", "153639.502500", "153640.992500", "153642.482500", "153643.972500", "153645.462500", "153646.952500", "153648.442500", "153649.932500", "153651.422500", "153652.912500", "153654.402500", "153655.892500", "153657.382500", "153658.872500", "153700.362500", "153701.852500", "153703.342500", "153704.832500", "153706.322500", "153707.812500", "153709.302500", "153710.792500", "153712.282500", "153713.772500", "153715.262500", "153716.752500", "153718.242500", "153719.732500", "153721.222500", "153722.712500", "153724.202500", "153725.692500", "153727.182500", "153728.672500", "153730.162500", "153731.652500", "153733.142500", "153734.632500", "153736.122500", "153737.612500", "153739.102500", "153740.592500", "153742.082500", "153743.572500", "153745.062500", "153746.552500", "153748.042500", "153749.532500", "153751.022500", "153752.512500", "153754.002500", "153755.492500", "153756.982500", "153758.472500", "153759.962500", "153801.452500", "153802.942500", "153804.432500", "153805.922500", "153807.412500", "153808.902500", "153810.392500", "153811.882500", "153813.372500", "153814.862500", "153816.352500", "153817.842500", "153819.332500", "153820.822500", "153822.312500", "153823.802500", "153825.292500", "153826.782500", "153828.272500", "153829.762500", "153831.252500", "153832.742500", "153834.232500", "153835.722500", "153837.212500", "153838.702500", "153840.192500", "153841.682500", "153843.172500", "153844.662500", "153846.152500", "153847.642500", "153849.132500", "153850.622500", "153852.112500", "153853.602500", "153855.092500", "153856.582500", "153858.072500", "153859.562500", "153901.052500", "153902.542500", "153904.032500", "153905.522500", "153907.012500", "153908.502500", "153909.992500", "153911.482500", "153912.972500", "153914.462500", "153915.952500", "153917.442500", "153918.932500", "153920.422500", "153921.912500", "153923.402500", "153924.892500", "153926.382500", "153927.872500", "153929.362500", "153930.852500", "153932.342500", "153933.832500", "153935.322500", "153936.812500", "153938.302500", "153939.792500", "153941.282500", "153942.772500", "153944.262500", "153945.752500", "153947.242500", "153948.732500", "153950.222500", "153951.712500", "153953.202500", "153954.692500", "153956.182500", "153957.672500", "153959.162500", "154000.652500", "154002.142500", "154003.632500", "154005.122500", "154006.612500", "154008.102500", "154009.592500", "154011.082500", "154012.572500", "154014.062500", "154015.552500", "154017.042500", "154018.532500", "154020.022500", "154021.512500", "154023.002500", "154024.492500", "154025.982500", "154027.472500", "154028.962500", "154030.452500", "154031.942500", "154033.432500", "154034.922500", "154036.412500", "154037.902500", "154039.392500", "154040.882500", "154042.372500", "154043.862500", "154045.352500", "154046.842500", "154048.332500", "154049.822500", "154051.312500", "154052.802500", "154054.292500", "154055.782500", "154057.272500", "154058.762500", "154100.252500", "154101.742500", "154103.232500", "154104.722500", "154106.212500", "154107.702500", "154109.192500", "154110.682500", "154112.172500", "154113.662500", "154115.152500", "154116.642500", "154118.132500", "154119.622500", "154121.112500", "154122.602500", "154124.092500", "154125.582500", "154127.072500", "154128.562500", "154130.052500", "154131.542500", "154133.032500", "154134.522500", "154136.012500", "154137.502500", "154138.992500", "154140.482500", "154141.972500", "154143.462500", "154144.952500", "154146.442500", "154147.932500", "154149.422500", "154150.912500", "154152.402500", "154153.892500", "154155.382500", "154156.872500", "154158.362500", "154159.852500", "154201.342500", "154202.832500", "154204.322500", "154205.812500", "154207.302500", "154208.792500", "154210.282500", "154211.772500", "154213.262500", "154214.752500", "154216.242500", "154217.732500", "154219.222500", "154220.712500", "154222.202500", "154223.692500", "154225.182500", "154226.672500", "154228.162500", "154229.652500", "154231.142500", "154232.632500", "154234.122500", "154235.612500", "154237.102500", "154238.592500", "154240.082500", "154241.572500", "154243.062500", "154244.552500", "154246.042500", "154247.532500", "154249.022500", "154250.512500", "154252.002500", "154253.492500", "154254.982500", "154256.472500", "154257.962500", "154259.452500", "154300.942500", "154302.432500", "154303.922500", "154305.412500", "154306.902500", "154308.392500", "154309.882500", "154311.372500", "154312.862500", "154314.352500", "154315.842500", "154317.332500", "154318.822500", "154320.312500", "154321.802500", "154323.292500", "154324.782500", "154326.272500", "154327.762500", "154329.252500", "154330.742500", "154332.232500", "154333.722500", "154335.212500", "154336.702500", "154338.192500", "154339.682500", "154341.172500", "154342.662500", "154344.152500", "154345.642500", "154347.132500", "154348.622500", "154350.112500", "154351.602500", "154353.092500", "154354.582500", "154356.072500", "154357.562500", "154359.052500", "154400.542500", "154402.032500", "154403.522500", "154405.012500", "154406.502500", "154407.992500", "154409.482500", "154410.972500", "154412.462500", "154413.952500", "154415.442500", "154416.932500", "154418.422500", "154419.912500", "154421.402500", "154422.892500", "154424.382500", "154425.872500", "154427.362500", "154428.852500", "154430.342500", "154431.832500", "154433.322500", "154434.812500", "154436.302500", "154437.792500", "154439.282500", "154440.772500", "154442.262500", "154443.752500", "154445.242500", "154446.732500", "154448.222500", "154449.712500", "154451.202500", "154452.692500", "154454.182500", "154455.672500", "154457.162500", "154458.652500", "154500.142500", "154501.632500", "154503.122500", "154504.612500", "154506.102500", "154507.592500", "154509.082500", "154510.572500", "154512.062500", "154513.552500", "154515.042500", "154516.532500", "154518.022500", "154519.512500", "154521.002500", "154522.492500", "154523.982500", "154525.472500", "154526.962500", "154528.452500", "154529.942500", "154531.432500", "154532.922500", "154534.412500", "154535.902500", "154537.392500", "154538.882500", "154540.372500", "154541.862500", "154543.352500", "154544.842500", "154546.332500", "154547.822500", "154549.312500", "154550.802500", "154552.292500", "154553.782500", "154555.272500", "154556.762500", "154558.252500", "154559.742500", "154601.232500", "154602.722500", "154604.212500", "154605.702500", "154607.192500", "154608.682500", "154610.172500", "154611.662500", "154613.152500", "154614.642500", "154616.132500", "154617.622500", "154619.112500", "154620.602500", "154622.092500", "154623.582500", "154625.072500", "154626.562500", "154628.052500", "154629.542500", "154631.032500", "154632.522500", "154634.012500", "154635.502500", "154636.992500", "154638.482500", "154639.972500", "154641.462500", "154642.952500", "154644.442500", "154645.932500", "154647.422500", "154648.912500", "154650.402500", "154651.892500", "154653.382500", "154654.872500", "154656.362500", "154657.852500", "154659.342500", "154700.832500", "154702.322500", "154703.812500", "154705.302500", "154706.792500", "154708.282500", "154709.772500", "154711.262500", "154712.752500", "154714.242500", "154715.732500", "154717.222500", "154718.712500", "154720.202500", "154721.692500", "154723.182500", "154724.672500", "154726.162500", "154727.652500", "154729.142500", "154730.632500", "154732.122500", "154733.612500", "154735.102500", "154736.592500", "154738.082500", "154739.572500", "154741.062500", "154742.552500", "154744.042500", "154745.532500", "154747.022500", "154748.512500", "154750.002500", "154751.492500", "154752.982500", "154754.472500", "154755.962500", "154757.452500", "154758.942500", "154800.432500", "154801.922500", "154803.412500", "154804.902500", "154806.392500", "154807.882500", "154809.372500", "154810.862500", "154812.352500", "154813.842500", "154815.332500", "154816.822500", "154818.312500", "154819.802500", "154821.292500", "154822.782500", "154824.272500", "154825.762500", "154827.252500", "154828.742500", "154830.232500", "154831.722500", "154833.212500", "154834.702500", "154836.192500", "154837.682500", "154839.172500", "154840.662500", "154842.152500", "154843.642500", "154845.132500", "154846.622500", "154848.112500", "154849.602500", "154851.092500", "154852.582500", "154854.072500", "154855.562500", "154857.052500", "154858.542500", "154900.032500", "154901.522500", "154903.012500", "154904.502500", "154905.992500", "154907.482500", "154908.972500", "154910.462500", "154911.952500", "154913.442500", "154914.932500", "154916.422500", "154917.912500", "154919.402500", "154920.892500", "154922.382500", "154923.872500", "154925.362500", "154926.852500"],
      "ContentTime": ["153754.669000", "153754.673000", "153754.676000", "153754.679000", "153754.682000", "153754.685000", "153754.688000", "153754.691000", "153754.693000", "153754.696000", "153754.699000", "153754.702000", "153754.705000", "153754.708000", "153754.711000", "153754.714000", "153754.717000", "153754.720000", "153754.723000", "153754.726000", "153754.729000", "153754.740000", "153754.743000", "153754.746000", "153754.749000", "153754.752000", "153754.755000", "153754.758000", "153754.761000", "153754.764000", "153754.767000", "153754.770000", "153754.773000", "153754.776000", "153754.779000", "153754.782000", "153754.784000", "153754.787000", "153754.790000", "153814.630000", "153814.633000", "153814.636000", "153814.639000", "153814.642000", "153814.645000", "153814.648000", "153814.651000", "153814.654000", "153814.656000", "153814.659000", "153814.662000", "153814.667000", "153814.670000", "153814.673000", "153814.676000", "153814.679000", "153814.682000", "153814.685000", "153814.688000", "153834.630000", "153834.633000", "153834.636000", "153834.639000", "153834.642000", "153834.645000", "153834.648000", "153834.651000", "153834.654000", "153834.656000", "153834.659000", "153834.662000", "153834.665000", "153834.668000", "153834.671000", "153834.674000", "153834.677000", "153834.680000", "153834.690000", "153834.693000", "153854.629000", "153854.632000", "153854.635000", "153854.638000", "153854.641000", "153854.644000", "153854.647000", "153854.650000", "153854.653000", "153854.656000", "153854.659000", "153854.675000", "153854.678000", "153854.681000", "153854.684000", "153854.686000", "153854.689000", "153854.692000", "153854.695000", "153854.698000", "153934.629000", "153934.632000", "153934.635000", "153934.638000", "153934.641000", "153934.644000", "153934.647000", "153934.650000", "153934.653000", "153934.656000", "153934.659000", "153934.662000", "153934.665000", "153934.668000", "153934.671000", "153934.674000", "153934.676000", "153934.679000", "153934.682000", "153934.685000", "153934.688000", "153934.691000", "153934.694000", "153934.697000", "153934.700000", "153934.703000", "153934.706000", "153934.709000", "153934.712000", "153934.715000", "154014.629000", "154014.632000", "154014.635000", "154014.638000", "154014.642000", "154014.645000", "154014.648000", "154014.652000", "154014.655000", "154014.658000", "154014.661000", "154014.663000", "154014.666000", "154014.669000", "154014.673000", "154014.675000", "154014.678000", "154014.681000", "154014.684000", "154014.687000", "154014.690000", "154014.693000", "154014.696000", "154014.699000", "154014.702000", "154014.705000", "154054.629000", "154054.632000", "154054.635000", "154054.638000", "154054.641000", "154054.644000", "154054.647000", "154054.650000", "154054.653000", "154054.656000", "154054.659000", "154054.662000", "154054.665000", "154054.668000", "154054.671000", "154054.674000", "154054.677000", "154054.680000", "154054.682000", "154054.685000", "154054.688000", "154054.691000", "154054.694000", "154054.697000", "154054.700000", "154054.703000", "154054.706000", "154134.629000", "154134.632000", "154134.635000", "154134.638000", "154134.641000", "154134.644000", "154134.647000", "154134.650000", "154134.653000", "154134.656000", "154134.659000", "154134.662000", "154134.665000", "154134.667000", "154134.670000", "154134.673000", "154134.676000", "154134.679000", "154134.682000", "154134.685000", "154134.688000", "154134.691000", "154134.694000", "154134.697000", "154134.700000", "154134.703000", "154134.706000", "154214.629000", "154214.632000", "154214.635000", "154214.638000", "154214.641000", "154214.644000", "154214.647000", "154214.650000", "154214.653000", "154214.656000", "154214.659000", "154214.662000", "154214.665000", "154214.668000", "154214.671000", "154214.674000", "154214.677000", "154214.680000", "154214.683000", "154214.686000", "154214.689000", "154214.691000", "154214.694000", "154214.697000", "154214.700000", "154214.703000", "154214.706000", "154234.629000", "154234.632000", "154234.635000", "154234.638000", "154234.641000", "154234.644000", "154234.647000", "154234.650000", "154234.653000", "154234.656000", "154234.659000", "154234.662000", "154234.665000", "154314.629000", "154314.632000", "154314.635000", "154314.638000", "154314.641000", "154314.644000", "154314.647000", "154314.650000", "154314.653000", "154314.656000", "154314.659000", "154314.662000", "154314.665000", "154314.668000", "154314.671000", "154314.674000", "154314.676000", "154314.679000", "154314.682000", "154314.685000", "154314.688000", "154314.691000", "154314.694000", "154314.697000", "154314.700000", "154314.719000", "154314.722000", "154354.629000", "154354.632000", "154354.635000", "154354.638000", "154354.641000", "154354.644000", "154354.647000", "154354.650000", "154354.653000", "154354.656000", "154354.659000", "154354.662000", "154354.665000", "154354.668000", "154354.671000", "154354.674000", "154354.676000", "154354.679000", "154354.682000", "154354.685000", "154354.688000", "154354.691000", "154354.694000", "154354.697000", "154354.700000", "154354.703000", "154354.706000", "154434.629000", "154434.632000", "154434.635000", "154434.638000", "154434.641000", "154434.644000", "154434.655000", "154434.658000", "154434.661000", "154434.664000", "154434.667000", "154434.670000", "154434.673000", "154434.676000", "154434.679000", "154434.682000", "154434.685000", "154434.688000", "154434.690000", "154434.693000", "154434.696000", "154434.699000", "154434.702000", "154434.705000", "154434.708000", "154434.711000", "154434.714000", "154514.630000", "154514.633000", "154514.636000", "154514.639000", "154514.642000", "154514.645000", "154514.648000", "154514.651000", "154514.654000", "154514.657000", "154514.660000", "154514.663000", "154514.666000", "154514.669000", "154514.672000", "154514.675000", "154514.677000", "154514.680000", "154514.683000", "154514.686000", "154514.689000", "154514.692000", "154514.695000", "154514.698000", "154514.701000", "154514.704000", "154514.707000", "154554.629000", "154554.632000", "154554.635000", "154554.638000", "154554.641000", "154554.644000", "154554.647000", "154554.650000", "154554.653000", "154554.656000", "154554.659000", "154554.662000", "154554.665000", "154554.668000", "154554.671000", "154554.674000", "154554.677000", "154554.680000", "154554.683000", "154554.685000", "154554.688000", "154554.691000", "154554.694000", "154554.697000", "154554.700000", "154554.703000", "154554.706000", "154634.629000", "154634.632000", "154634.635000", "154634.638000", "154634.641000", "154634.644000", "154634.647000", "154634.650000", "154634.653000", "154634.656000", "154634.659000", "154634.662000", "154634.665000", "154634.668000", "154634.671000", "154634.674000", "154634.677000", "154634.680000", "154634.683000", "154634.685000", "154634.688000", "154634.692000", "154634.694000", "154634.697000", "154634.700000", "154634.703000", "154634.706000", "154714.629000", "154714.632000", "154714.635000", "154714.638000", "154714.641000", "154714.644000", "154714.647000", "154714.650000", "154714.653000", "154714.656000", "154714.659000", "154714.662000", "154714.665000", "154714.668000", "154714.671000", "154714.674000", "154714.677000", "154714.680000", "154714.683000", "154714.685000", "154714.688000", "154714.691000", "154714.695000", "154714.698000", "154714.701000", "154714.704000", "154754.629000", "154754.632000", "154754.636000", "154754.638000", "154754.641000", "154754.644000", "154754.647000", "154754.650000", "154754.653000", "154754.656000", "154754.659000", "154754.662000", "154754.665000", "154754.668000", "154754.671000", "154754.674000", "154754.677000", "154754.680000", "154754.683000", "154754.686000", "154754.699000", "154754.702000", "154754.705000", "154754.708000", "154754.711000", "154754.714000", "154754.717000", "154834.629000", "154834.632000", "154834.635000", "154834.638000", "154834.641000", "154834.644000", "154834.647000", "154834.650000", "154834.653000", "154834.656000", "154834.659000", "154834.662000", "154834.665000", "154834.668000", "154834.671000", "154834.674000", "154834.677000", "154834.680000", "154834.683000", "154834.685000", "154834.688000", "154834.691000", "154834.694000", "154834.697000", "154834.700000", "154834.703000", "154834.706000", "154914.629000", "154914.632000", "154914.635000", "154914.638000", "154914.641000", "154914.644000", "154914.647000", "154914.650000", "154914.653000", "154914.656000", "154914.659000", "154914.662000", "154914.665000", "154914.668000", "154914.671000", "154914.674000", "154914.677000", "154914.680000", "154914.683000", "154914.686000", "154914.689000", "154914.692000", "154914.694000", "154914.697000", "154914.700000", "154914.703000", "154914.706000", "154929.431000", "154929.435000", "154929.438000", "154929.441000", "154929.444000", "154929.447000", "154929.450000", "154929.453000", "154929.456000", "154929.459000"],
