{
  "AcquisitionMatrixPE": 104,
  "AcquisitionNumber": 1,
  "AcquisitionTime": "15:50:0.655000",
  "BandwidthPerPixelPhaseEncode": 17.17,
  "BaseResolution": 104,
  "BodyPartExamined": "BRAIN",
  "CoilString": "HC1-7;NC1_2",
  "ConsistencyInfo": "N4_VE11C_LATEST_20160120",
  "ConversionSoftware": "dcm2niix",
  "ConversionSoftwareVersion": "v1.0.20190902",
  "DerivedVendorReportedEchoSpacing": 0.000560011,
  "DeviceSerialNumber": "167006",
  "DwellTime": 2.1e-06,
  "EchoTime": 0.037,
  "EchoTrainLength": 104,
  "EffectiveEchoSpacing": 0.000560011,
  "FlipAngle": 52,
  "ImageComments": "Unaliased_MB4_PE3_LB",
  "ImageOrientationPatientDICOM": [0.99793, -0.0518229, 0.0380732, 0.062085, 0.930691, -0.360499],
  "ImageType": [
    "ORIGINAL",
    "PRIMARY",
    "M",
    "MB",
    "ND",
    "MOSAIC"
],
  "ImagingFrequency": 123.259,
  "InPlanePhaseEncodingDirectionDICOM": "COL",
  "InstitutionAddress": "Chemin_Queen-Mary_4565_Montreal_District_CA_H3W_1W5",
  "InstitutionName": "IUGM",
  "InstitutionalDepartmentName": "Department",
  "MRAcquisitionType": "2D",
  "MagneticFieldStrength": 3,
  "Manufacturer": "Siemens",
  "ManufacturersModelName": "Prisma_fit",
  "Modality": "MR",
  "MultibandAccelerationFactor": 4,
  "PartialFourier": 1,
  "PatientPosition": "HFS",
  "PercentPhaseFOV": 100,
  "PhaseEncodingDirection": "j",
  "PhaseEncodingSteps": 104,
  "PhaseResolution": 1,
  "PixelBandwidth": 2290,
  "ProcedureStepDescription": "games_shinobi",
  "ProtocolName": "func_task-shinobi_run-3",
  "PulseSequenceDetails": "%CustomerSeq%_cmrr_mbep2d_bold",
  "ReceiveCoilActiveElements": "HC1-7;NC1,2",
  "ReceiveCoilName": "HeadNeck_64",
  "ReconMatrixPE": 104,
  "RepetitionTime": 1.49,
  "SAR": 0.0320902,
  "ScanOptions": "FS",
  "ScanningSequence": "EP",
  "SequenceName": "epfid2d1_104",
  "SequenceVariant": "SK_SS",
  "SeriesDescription": "func_task-shinobi_run-3",
  "SeriesNumber": 13,
  "ShimSetting": [636, -7254, -8855, 589, 11, -244, -97, -15],
  "SliceThickness": 2,
  "SliceTiming": [0, 0.785, 0.0975, 0.8825, 0.1975, 0.98, 0.295, 1.0775, 0.3925, 1.1775, 0.49, 1.275, 0.5875, 1.3725, 0.6875, 0, 0.785, 0.0975, 0.8825, 0.1975, 0.98, 0.295, 1.0775, 0.3925, 1.1775, 0.49, 1.275, 0.5875, 1.3725, 0.6875, 0, 0.785, 0.0975, 0.8825, 0.1975, 0.98, 0.295, 1.0775, 0.3925, 1.1775, 0.49, 1.275, 0.5875, 1.3725, 0.6875, 0, 0.785, 0.0975, 0.8825, 0.1975, 0.98, 0.295, 1.0775, 0.3925, 1.1775, 0.49, 1.275, 0.5875, 1.3725, 0.6875],
  "SoftwareVersions": "syngo_MR_E11",
  "SpacingBetweenSlices": 2,
  "StationName": "MRC35049",
  "TaskName": "shinobi",
  "TotalReadoutTime": 0.0576811,
  "TxRefAmp": 222.043,
  "WipMemBlock": "67ce12b4-cc33-4865-8496-5d4ea5ae71a4||Sequence: R016 ve11c/master r/e634e98; Dec 19 2017 11:00:25 by eja",
  "dcmmeta_affine": [
    [-1.9958605766296387, 0.1241699829697609, 0.03350447863340378, 99.6183853149414],
    [0.10364586114883423, 1.861382007598877, -0.724233865737915, -68.03466796875],
    [0.07614637166261673, 0.7209985852241516, 1.8639642000198364, -75.73094940185547],
    [0.0, 0.0, 0.0, 1.0]
],
  "dcmmeta_reorient_transform": [
    [0.0, -1.0, 0.0, 103.0],
    [1.0, 0.0, 0.0, 0.0],
    [0.0, 0.0, 1.0, 0.0],
    [0.0, 0.0, 0.0, 1.0]
],
  "dcmmeta_shape": [104, 104, 60, 515],
  "dcmmeta_slice_dim": 2,
  "dcmmeta_version": 0.6,
  "global": {
    "const": {
      "AcquisitionMatrix": [104, 0, 0, 104],
      "AngioFlag": "N",
      "BitsAllocated": 16,
      "BitsStored": 16,
      "BodyPartExamined": "BRAIN",
      "Columns": 832,
      "EchoNumbers": 1,
      "EchoTime": 37.0,
      "EchoTrainLength": 104,
      "FlipAngle": 52.0,
      "HighBit": 15,
      "ImageOrientationPatient": [0.99793026631243, -0.0518229304334, 0.03807318556284, 0.06208499036561, 0.93069098281056, -0.3604993044188],
      "ImagePositionPatient": [-884.09899981338, -763.50361996845, 233.25812271553],
      "ImageType": [
        "ORIGINAL",
        "PRIMARY",
        "M",
        "MB",
        "ND",
        "MOSAIC"
],
      "ImagedNucleus": "1H",
      "ImagingFrequency": 123.258999,
      "InPlanePhaseEncodingDirection": "COL",
      "MRAcquisitionType": "2D",
      "MagneticFieldStrength": 3.0,
      "Manufacturer": "SIEMENS",
      "ManufacturerModelName": "Prisma_fit",
      "Modality": "MR",
      "NumberOfAverages": 1.0,
      "NumberOfPhaseEncodingSteps": 104,
      "PercentPhaseFieldOfView": 100.0,
      "PercentSampling": 100.0,
      "PerformedProcedureStepStartTime": "144934.184000",
      "PhotometricInterpretation": "MONOCHROME2",
      "PixelBandwidth": 2290.0,
      "PixelRepresentation": 0,
      "PixelSpacing": [2.0, 2.0],
      "ProtocolName": "func_task-shinobi_run-3",
      "RepetitionTime": 1490.0,
      "Rows": 832,
      "SAR": 0.03209019757993,
      "SamplesPerPixel": 1,
      "ScanOptions": "FS",
      "ScanningSequence": "EP",
      "SequenceName": "epfid2d1_104",
      "SequenceVariant": [
        "SK",
        "SS"
],
      "SeriesDescription": "func_task-shinobi_run-3",
      "SeriesNumber": 13,
      "SeriesTime": "155134.045000",
      "SliceLocation": -44.274554756672,
      "SliceThickness": 2.0,
      "SmallestImagePixelValue": 0,
      "SoftwareVersions": "syngo MR E11",
      "SpacingBetweenSlices": 1.9999999498724,
      "SpecificCharacterSet": "ISO_IR 100",
      "StudyID": "1",
      "StudyTime": "144934.096000",
      "TransmitCoilName": "Body",
      "VariableFlipAngleFlag": "N",
      "WindowCenterWidthExplanation": "Algo1",
      "dBdt": 0.0},
    "slices": {}
  },
  "time": {
    "samples": {
      "AcquisitionNumber": [1, 2, 3, 4, 5, 6, 7, 8, 9, 10, 11, 12, 13, 14, 15, 16, 17, 18, 19, 20, 21, 22, 23, 24, 25, 26, 27, 28, 29, 30, 31, 32, 33, 34, 35, 36, 37, 38, 39, 40, 41, 42, 43, 44, 45, 46, 47, 48, 49, 50, 51, 52, 53, 54, 55, 56, 57, 58, 59, 60, 61, 62, 63, 64, 65, 66, 67, 68, 69, 70, 71, 72, 73, 74, 75, 76, 77, 78, 79, 80, 81, 82, 83, 84, 85, 86, 87, 88, 89, 90, 91, 92, 93, 94, 95, 96, 97, 98, 99, 100, 101, 102, 103, 104, 105, 106, 107, 108, 109, 110, 111, 112, 113, 114, 115, 116, 117, 118, 119, 120, 121, 122, 123, 124, 125, 126, 127, 128, 129, 130, 131, 132, 133, 134, 135, 136, 137, 138, 139, 140, 141, 142, 143, 144, 145, 146, 147, 148, 149, 150, 151, 152, 153, 154, 155, 156, 157, 158, 159, 160, 161, 162, 163, 164, 165, 166, 167, 168, 169, 170, 171, 172, 173, 174, 175, 176, 177, 178, 179, 180, 181, 182, 183, 184, 185, 186, 187, 188, 189, 190, 191, 192, 193, 194, 195, 196, 197, 198, 199, 200, 201, 202, 203, 204, 205, 206, 207, 208, 209, 210, 211, 212, 213, 214, 215, 216, 217, 218, 219, 220, 221, 222, 223, 224, 225, 226, 227, 228, 229, 230, 231, 232, 233, 234, 235, 236, 237, 238, 239, 240, 241, 242, 243, 244, 245, 246, 247, 248, 249, 250, 251, 252, 253, 254, 255, 256, 257, 258, 259, 260, 261, 262, 263, 264, 265, 266, 267, 268, 269, 270, 271, 272, 273, 274, 275, 276, 277, 278, 279, 280, 281, 282, 283, 284, 285, 286, 287, 288, 289, 290, 291, 292, 293, 294, 295, 296, 297, 298, 299, 300, 301, 302, 303, 304, 305, 306, 307, 308, 309, 310, 311, 312, 313, 314, 315, 316, 317, 318, 319, 320, 321, 322, 323, 324, 325, 326, 327, 328, 329, 330, 331, 332, 333, 334, 335, 336, 337, 338, 339, 340, 341, 342, 343, 344, 345, 346, 347, 348, 349, 350, 351, 352, 353, 354, 355, 356, 357, 358, 359, 360, 361, 362, 363, 364, 365, 366, 367, 368, 369, 370, 371, 372, 373, 374, 375, 376, 377, 378, 379, 380, 381, 382, 383, 384, 385, 386, 387, 388, 389, 390, 391, 392, 393, 394, 395, 396, 397, 398, 399, 400, 401, 402, 403, 404, 405, 406, 407, 408, 409, 410, 411, 412, 413, 414, 415, 416, 417, 418, 419, 420, 421, 422, 423, 424, 425, 426, 427, 428, 429, 430, 431, 432, 433, 434, 435, 436, 437, 438, 439, 440, 441, 442, 443, 444, 445, 446, 447, 448, 449, 450, 451, 452, 453, 454, 455, 456, 457, 458, 459, 460, 461, 462, 463, 464, 465, 466, 467, 468, 469, 470, 471, 472, 473, 474, 475, 476, 477, 478, 479, 480, 481, 482, 483, 484, 485, 486, 487, 488, 489, 490, 491, 492, 493, 494, 495, 496, 497, 498, 499, 500, 501, 502, 503, 504, 505, 506, 507, 508, 509, 510, 511, 512, 513, 514, 515],
      "AcquisitionTime": ["155000.655000", "155002.145000", "155003.635000", "155005.125000", "155006.615000", "155008.105000", "155009.595000", "155011.085000", "155012.575000", "155014.065000", "155015.555000", "155017.045000", "155018.535000", "155020.025000", "155021.515000", "155023.005000", "155024.495000", "155025.985000", "155027.475000", "155028.965000", "155030.455000", "155031.945000", "155033.435000", "155034.925000", "155036.415000", "155037.905000", "155039.395000", "155040.885000", "155042.375000", "155043.865000", "155045.355000", "155046.845000", "155048.335000", "155049.825000", "155051.315000", "155052.805000", "155054.295000", "155055.785000", "155057.275000", "155058.765000", "155100.255000", "155101.745000", "155103.235000", "155104.725000", "155106.215000", "155107.705000", "155109.195000", "155110.685000", "155112.175000", "155113.665000", "155115.155000", "155116.645000", "155118.135000", "155119.625000", "155121.115000", "155122.605000", "155124.095000", "155125.585000", "155127.075000", "155128.565000", "155130.055000", "155131.545000", "155133.035000", "155134.525000", "155136.015000", "155137.505000", "155138.995000", "155140.485000", "155141.975000", "155143.465000", "155144.955000", "155146.445000", "155147.935000", "155149.425000", "155150.915000", "155152.405000", "155153.895000", "155155.385000", "155156.875000", "155158.365000", "155159.855000", "155201.345000", "155202.835000", "155204.325000", "155205.815000", "155207.305000", "155208.795000", "155210.285000", "155211.775000", "155213.265000", "155214.755000", "155216.245000", "155217.735000", "155219.225000", "155220.715000", "155222.205000", "155223.695000", "155225.185000", "155226.675000", "155228.165000", "155229.655000", "155231.145000", "155232.635000", "155234.125000", "155235.615000", "155237.105000", "155238.595000", "155240.085000", "155241.575000", "155243.065000", "155244.555000", "155246.045000", "155247.535000", "155249.025000", "155250.515000", "155252.005000", "155253.495000", "155254.985000", "155256.475000", "155257.965000", "155259.455000", "155300.945000", "155302.435000", "155303.925000", "155305.415000", "155306.905000", "155308.395000", "155309.885000", "155311.375000", "155312.865000", "155314.355000", "155315.845000", "155317.335000", "155318.825000", "155320.315000", "155321.805000", "155323.295000", "155324.785000", "155326.275000", "155327.765000", "155329.255000", "155330.745000", "155332.235000", "155333.725000", "155335.215000", "155336.705000", "155338.195000", "155339.685000", "155341.175000", "155342.665000", "155344.155000", "155345.645000", "155347.135000", "155348.625000", "155350.115000", "155351.605000", "155353.095000", "155354.585000", "155356.075000", "155357.565000", "155359.055000", "155400.545000", "155402.035000", "155403.525000", "155405.015000", "155406.505000", "155407.995000", "155409.485000", "155410.975000", "155412.465000", "155413.955000", "155415.445000", "155416.935000", "155418.425000", "155419.915000", "155421.405000", "155422.895000", "155424.385000", "155425.875000", "155427.365000", "155428.855000", "155430.345000", "155431.835000", "155433.325000", "155434.815000", "155436.305000", "155437.795000", "155439.285000", "155440.775000", "155442.265000", "155443.755000", "155445.245000", "155446.735000", "155448.225000", "155449.715000", "155451.205000", "155452.695000", "155454.185000", "155455.675000", "155457.165000", "155458.655000", "155500.145000", "155501.635000", "155503.125000", "155504.615000", "155506.105000", "155507.595000", "155509.085000", "155510.575000", "155512.065000", "155513.555000", "155515.045000", "155516.535000", "155518.025000", "155519.515000", "155521.005000", "155522.495000", "155523.985000", "155525.475000", "155526.965000", "155528.455000", "155529.945000", "155531.435000", "155532.925000", "155534.415000", "155535.905000", "155537.395000", "155538.885000", "155540.375000", "155541.865000", "155543.355000", "155544.845000", "155546.335000", "155547.825000", "155549.315000", "155550.805000", "155552.295000", "155553.785000", "155555.275000", "155556.765000", "155558.255000", "155559.745000", "155601.235000", "155602.725000", "155604.215000", "155605.705000", "155607.195000", "155608.685000", "155610.175000", "155611.665000", "155613.155000", "155614.645000", "155616.135000", "155617.625000", "155619.115000", "155620.605000", "155622.095000", "155623.585000", "155625.075000", "155626.565000", "155628.055000", "155629.545000", "155631.035000", "155632.525000", "155634.015000", "155635.505000", "155636.995000", "155638.485000", "155639.975000", "155641.465000", "155642.955000", "155644.445000", "155645.935000", "155647.425000", "155648.915000", "155650.405000", "155651.895000", "155653.385000", "155654.875000", "155656.365000", "155657.855000", "155659.345000", "155700.835000", "155702.325000", "155703.815000", "155705.305000", "155706.795000", "155708.285000", "155709.775000", "155711.265000", "155712.755000", "155714.245000", "155715.735000", "155717.225000", "155718.715000", "155720.205000", "155721.695000", "155723.185000", "155724.675000", "155726.165000", "155727.655000", "155729.145000", "155730.635000", "155732.125000", "155733.615000", "155735.105000", "155736.595000", "155738.085000", "155739.575000", "155741.065000", "155742.555000", "155744.045000", "155745.535000", "155747.025000", "155748.515000", "155750.005000", "155751.495000", "155752.985000", "155754.475000", "155755.965000", "155757.455000", "155758.945000", "155800.435000", "155801.925000", "155803.415000", "155804.905000", "155806.395000", "155807.885000", "155809.375000", "155810.865000", "155812.355000", "155813.845000", "155815.335000", "155816.825000", "155818.315000", "155819.805000", "155821.295000", "155822.785000", "155824.275000", "155825.765000", "155827.255000", "155828.745000", "155830.235000", "155831.725000", "155833.215000", "155834.705000", "155836.195000", "155837.685000", "155839.175000", "155840.665000", "155842.155000", "155843.645000", "155845.135000", "155846.625000", "155848.115000", "155849.605000", "155851.095000", "155852.585000", "155854.075000", "155855.565000", "155857.055000", "155858.545000", "155900.035000", "155901.525000", "155903.015000", "155904.505000", "155905.995000", "155907.485000", "155908.975000", "155910.465000", "155911.955000", "155913.445000", "155914.935000", "155916.425000", "155917.915000", "155919.405000", "155920.895000", "155922.385000", "155923.875000", "155925.365000", "155926.855000", "155928.345000", "155929.835000", "155931.325000", "155932.815000", "155934.305000", "155935.795000", "155937.285000", "155938.775000", "155940.265000", "155941.755000", "155943.245000", "155944.735000", "155946.225000", "155947.715000", "155949.205000", "155950.695000", "155952.185000", "155953.675000", "155955.165000", "155956.655000", "155958.145000", "155959.635000", "160001.125000", "160002.615000", "160004.105000", "160005.595000", "160007.085000", "160008.575000", "160010.065000", "160011.555000", "160013.045000", "160014.535000", "160016.025000", "160017.515000", "160019.005000", "160020.495000", "160021.985000", "160023.475000", "160024.965000", "160026.455000", "160027.945000", "160029.435000", "160030.925000", "160032.415000", "160033.905000", "160035.395000", "160036.885000", "160038.375000", "160039.865000", "160041.355000", "160042.845000", "160044.335000", "160045.825000", "160047.315000", "160048.805000", "160050.295000", "160051.785000", "160053.275000", "160054.765000", "160056.255000", "160057.745000", "160059.235000", "160100.725000", "160102.215000", "160103.705000", "160105.195000", "160106.685000", "160108.175000", "160109.665000", "160111.155000", "160112.645000", "160114.135000", "160115.625000", "160117.115000", "160118.605000", "160120.095000", "160121.585000", "160123.075000", "160124.565000", "160126.055000", "160127.545000", "160129.035000", "160130.525000", "160132.015000", "160133.505000", "160134.995000", "160136.485000", "160137.975000", "160139.465000", "160140.955000", "160142.445000", "160143.935000", "160145.425000", "160146.915000", "160148.405000", "160149.895000", "160151.385000", "160152.875000", "160154.365000", "160155.855000", "160157.345000", "160158.835000", "160200.325000", "160201.815000", "160203.305000", "160204.795000", "160206.285000", "160207.775000", "160209.265000", "160210.755000", "160212.245000", "160213.735000", "160215.225000", "160216.715000", "160218.205000", "160219.695000", "160221.185000", "160222.675000", "160224.165000", "160225.655000", "160227.145000", "160228.635000", "160230.125000", "160231.615000", "160233.105000", "160234.595000", "160236.085000", "160237.575000", "160239.065000", "160240.555000", "160242.045000", "160243.535000", "160245.025000", "160246.515000"],
      "ContentTime": ["155134.048000", "155134.052000", "155134.055000", "155134.058000", "155134.061000", "155134.064000", "155134.067000", "155134.069000", "155134.072000", "155134.075000", "155134.078000", "155134.081000", "155134.090000", "155134.093000", "155134.096000", "155134.099000", "155134.101000", "155134.104000", "155134.107000", "155134.110000", "155134.113000", "155134.119000", "155134.122000", "155134.125000", "155134.128000", "155134.131000", "155134.134000", "155134.137000", "155134.140000", "155134.142000", "155134.152000", "155134.155000", "155134.158000", "155134.160000", "155134.164000", "155134.166000", "155134.169000", "155134.172000", "155154.013000", "155154.016000", "155154.019000", "155154.022000", "155154.025000", "155154.028000", "155154.031000", "155154.034000", "155154.037000", "155154.040000", "155154.043000", "155154.046000", "155154.049000", "155154.060000", "155154.063000", "155154.066000", "155154.069000", "155154.072000", "155154.075000", "155154.078000", "155214.014000", "155214.017000", "155214.020000", "155214.023000", "155214.026000", "155214.029000", "155214.032000", "155214.035000", "155214.037000", "155214.040000", "155214.043000", "155214.046000", "155214.049000", "155214.052000", "155214.055000", "155214.058000", "155214.061000", "155214.064000", "155214.066000", "155214.070000", "155234.014000", "155234.017000", "155234.020000", "155234.023000", "155234.026000", "155234.029000", "155234.032000", "155234.035000", "155234.037000", "155234.040000", "155234.043000", "155234.046000", "155234.060000", "155234.063000", "155234.066000", "155234.072000", "155234.074000", "155234.077000", "155234.080000", "155234.083000", "155234.086000", "155254.014000", "155254.017000", "155254.020000", "155254.023000", "155254.026000", "155254.029000", "155254.032000", "155254.035000", "155254.038000", "155254.040000", "155254.043000", "155254.046000", "155254.049000", "155254.052000", "155254.055000", "155254.058000", "155334.014000", "155334.022000", "155334.025000", "155334.028000", "155334.031000", "155334.034000", "155334.037000", "155334.040000", "155334.043000", "155334.046000", "155334.049000", "155334.052000", "155334.055000", "155334.057000", "155334.061000", "155334.064000", "155334.066000", "155334.069000", "155334.072000", "155334.075000", "155334.078000", "155334.081000", "155334.084000", "155334.087000", "155334.090000", "155334.093000", "155334.096000", "155414.013000", "155414.016000", "155414.019000", "155414.022000", "155414.025000", "155414.028000", "155414.031000", "155414.034000", "155414.037000", "155414.040000", "155414.043000", "155414.045000", "155414.048000", "155414.051000", "155414.054000", "155414.057000", "155414.060000", "155414.063000", "155414.066000", "155414.069000", "155414.072000", "155414.075000", "155414.078000", "155414.080000", "155414.083000", "155414.086000", "155414.089000", "155454.014000", "155454.017000", "155454.020000", "155454.023000", "155454.026000", "155454.029000", "155454.032000", "155454.035000", "155454.038000", "155454.041000", "155454.044000", "155454.047000", "155454.050000", "155454.053000", "155454.056000", "155454.058000", "155454.062000", "155454.064000", "155454.067000", "155454.070000", "155454.073000", "155454.076000", "155454.079000", "155454.082000", "155454.085000", "155454.088000", "155454.091000", "155534.014000", "155534.017000", "155534.020000", "155534.023000", "155534.026000", "155534.029000", "155534.032000", "155534.035000", "155534.038000", "155534.041000", "155534.044000", "155534.047000", "155534.050000", "155534.053000", "155534.055000", "155534.059000", "155534.061000", "155534.064000", "155534.067000", "155534.070000", "155534.073000", "155534.076000", "155534.079000", "155534.082000", "155534.085000", "155534.088000", "155534.091000", "155614.013000", "155614.016000", "155614.019000", "155614.022000", "155614.025000", "155614.028000", "155614.031000", "155614.034000", "155614.037000", "155614.040000", "155614.043000", "155614.046000", "155614.048000", "155614.051000", "155614.054000", "155614.057000", "155614.060000", "155614.063000", "155614.066000", "155614.069000", "155614.072000", "155614.075000", "155614.078000", "155614.080000", "155614.083000", "155614.086000", "155614.089000", "155654.014000", "155654.017000", "155654.020000", "155654.023000", "155654.026000", "155654.029000", "155654.032000", "155654.035000", "155654.038000", "155654.041000", "155654.044000", "155654.047000", "155654.050000", "155654.053000", "155654.055000", "155654.058000", "155654.061000", "155654.064000", "155654.067000", "155654.070000", "155654.073000", "155654.076000", "155654.079000", "155654.083000", "155654.086000", "155654.089000", "155734.014000", "155734.017000", "155734.020000", "155734.023000", "155734.026000", "155734.029000", "155734.032000", "155734.035000", "155734.038000", "155734.041000", "155734.044000", "155734.047000", "155734.050000", "155734.052000", "155734.055000", "155734.058000", "155734.061000", "155734.064000", "155734.067000", "155734.070000", "155734.073000", "155734.076000", "155734.079000", "155734.082000", "155734.085000", "155734.088000", "155734.091000", "155814.014000", "155814.017000", "155814.020000", "155814.023000", "155814.026000", "155814.029000", "155814.032000", "155814.035000", "155814.038000", "155814.041000", "155814.050000", "155814.053000", "155814.056000", "155814.059000", "155814.062000", "155814.065000", "155814.067000", "155814.070000", "155814.073000", "155814.076000", "155814.079000", "155814.082000", "155814.085000", "155814.088000", "155814.091000", "155814.094000", "155814.097000", "155854.013000", "155854.016000", "155854.019000", "155854.022000", "155854.025000", "155854.028000", "155854.031000", "155854.034000", "155854.037000", "155854.040000", "155854.043000", "155854.046000", "155854.049000", "155854.052000", "155854.054000", "155854.057000", "155854.060000", "155854.063000", "155854.066000", "155854.069000", "155854.072000", "155854.075000", "155854.078000", "155854.081000", "155854.084000", "155854.087000", "155854.090000", "155934.014000", "155934.017000", "155934.020000", "155934.023000", "155934.026000", "155934.029000", "155934.032000", "155934.035000", "155934.038000", "155934.041000", "155934.044000", "155934.047000", "155934.050000", "155934.053000", "155934.055000", "155934.058000", "155934.061000", "155934.064000", "155934.067000", "155934.070000", "155934.073000", "155934.076000", "155934.079000", "155934.082000", "155934.085000", "155934.088000", "155934.091000", "160014.014000", "160014.017000", "160014.020000", "160014.023000", "160014.026000", "160014.029000", "160014.032000", "160014.035000", "160014.038000", "160014.041000", "160014.043000", "160014.046000", "160014.049000", "160014.052000", "160014.055000", "160014.058000", "160014.061000", "160014.064000", "160014.067000", "160014.070000", "160014.073000", "160014.076000", "160014.079000", "160014.082000", "160014.085000", "160014.088000", "160014.091000", "160054.013000", "160054.016000", "160054.019000", "160054.022000", "160054.025000", "160054.028000", "160054.031000", "160054.034000", "160054.037000", "160054.040000", "160054.043000", "160054.046000", "160054.049000", "160054.051000", "160054.054000", "160054.057000", "160054.060000", "160054.063000", "160054.066000", "160054.069000", "160054.072000", "160054.075000", "160054.078000", "160054.081000", "160054.084000", "160054.087000", "160054.090000", "160134.014000", "160134.017000", "160134.020000", "160134.023000", "160134.026000", "160134.029000", "160134.032000", "160134.035000", "160134.038000", "160134.041000", "160134.044000", "160134.047000", "160134.050000", "160134.053000", "160134.055000", "160134.059000", "160134.061000", "160134.064000", "160134.067000", "160134.086000", "160134.089000", "160134.092000", "160134.095000", "160134.098000", "160134.101000", "160134.104000", "160214.014000", "160214.017000", "160214.020000", "160214.023000", "160214.026000", "160214.029000", "160214.032000", "160214.035000", "160214.038000", "160214.041000", "160214.044000", "160214.048000", "160214.051000", "160214.053000", "160214.056000", "160214.059000", "160214.062000", "160214.065000", "160214.068000", "160214.071000", "160214.074000", "160214.077000", "160214.080000", "160214.083000", "160214.086000", "160214.089000", "160214.092000", "160249.521000", "160249.524000", "160249.527000", "160249.530000", "160249.533000", "160249.536000", "160249.539000", "160249.542000", "160249.545000", "160249.548000", "160249.551000", "160249.553000", "160249.557000", "160249.559000", "160249.562000", "160249.565000", "160249.568000", "160249.571000", "160249.574000", "160249.577000", "160249.580000", "160249.583000", "160249.586000", "160249.589000"],
