{
  "AcquisitionMatrixPE": 104,
  "AcquisitionNumber": 1,
  "AcquisitionTime": "15:22:51.410000",
  "BandwidthPerPixelPhaseEncode": 17.17,
  "BaseResolution": 104,
  "BodyPartExamined": "BRAIN",
  "CoilString": "HC1-7;NC1_2",
  "ConsistencyInfo": "N4_VE11C_LATEST_20160120",
  "ConversionSoftware": "dcm2niix",
  "ConversionSoftwareVersion": "v1.0.20190902",
  "DerivedVendorReportedEchoSpacing": 0.000560011,
  "DeviceSerialNumber": "167006",
  "DwellTime": 2.1e-06,
  "EchoTime": 0.037,
  "EchoTrainLength": 104,
  "EffectiveEchoSpacing": 0.000560011,
  "FlipAngle": 52,
  "ImageComments": "Unaliased_MB4_PE3_LB",
  "ImageOrientationPatientDICOM": [0.99793, -0.0518229, 0.0380732, 0.062085, 0.930691, -0.360499],
  "ImageType": [
    "ORIGINAL",
    "PRIMARY",
    "M",
    "MB",
    "ND",
    "MOSAIC"
],
  "ImagingFrequency": 123.259,
  "InPlanePhaseEncodingDirectionDICOM": "COL",
  "InstitutionAddress": "Chemin_Queen-Mary_4565_Montreal_District_CA_H3W_1W5",
  "InstitutionName": "IUGM",
  "InstitutionalDepartmentName": "Department",
  "MRAcquisitionType": "2D",
  "MagneticFieldStrength": 3,
  "Manufacturer": "Siemens",
  "ManufacturersModelName": "Prisma_fit",
  "Modality": "MR",
  "MultibandAccelerationFactor": 4,
  "PartialFourier": 1,
  "PatientPosition": "HFS",
  "PercentPhaseFOV": 100,
  "PhaseEncodingDirection": "j",
  "PhaseEncodingSteps": 104,
  "PhaseResolution": 1,
  "PixelBandwidth": 2290,
  "ProcedureStepDescription": "games_shinobi",
  "ProtocolName": "func_task-shinobi_run-1",
  "PulseSequenceDetails": "%CustomerSeq%_cmrr_mbep2d_bold",
  "ReceiveCoilActiveElements": "HC1-7;NC1,2",
  "ReceiveCoilName": "HeadNeck_64",
  "ReconMatrixPE": 104,
  "RepetitionTime": 1.49,
  "SAR": 0.0320902,
  "ScanOptions": "FS",
  "ScanningSequence": "EP",
  "SequenceName": "epfid2d1_104",
  "SequenceVariant": "SK_SS",
  "SeriesDescription": "func_task-shinobi_run-1",
  "SeriesNumber": 9,
  "ShimSetting": [636, -7254, -8855, 589, 11, -244, -97, -15],
  "SliceThickness": 2,
  "SliceTiming": [0, 0.7825, 0.0975, 0.88, 0.195, 0.98, 0.2925, 1.0775, 0.39, 1.175, 0.49, 1.2725, 0.5875, 1.37, 0.685, 0, 0.7825, 0.0975, 0.88, 0.195, 0.98, 0.2925, 1.0775, 0.39, 1.175, 0.49, 1.2725, 0.5875, 1.37, 0.685, 0, 0.7825, 0.0975, 0.88, 0.195, 0.98, 0.2925, 1.0775, 0.39, 1.175, 0.49, 1.2725, 0.5875, 1.37, 0.685, 0, 0.7825, 0.0975, 0.88, 0.195, 0.98, 0.2925, 1.0775, 0.39, 1.175, 0.49, 1.2725, 0.5875, 1.37, 0.685],
  "SoftwareVersions": "syngo_MR_E11",
  "SpacingBetweenSlices": 2,
  "StationName": "MRC35049",
  "TaskName": "shinobi",
  "TotalReadoutTime": 0.0576811,
  "TxRefAmp": 222.043,
  "WipMemBlock": "d5d90d33-23e5-430e-82c8-6d4bebeaeda9||Sequence: R016 ve11c/master r/e634e98; Dec 19 2017 11:00:25 by eja",
  "dcmmeta_affine": [
    [-1.9958605766296387, 0.1241699829697609, 0.03350447863340378, 99.6183853149414],
    [0.10364586114883423, 1.861382007598877, -0.724233865737915, -68.03466796875],
    [0.07614637166261673, 0.7209985852241516, 1.8639642000198364, -75.73094940185547],
    [0.0, 0.0, 0.0, 1.0]
],
  "dcmmeta_reorient_transform": [
    [0.0, -1.0, 0.0, 103.0],
    [1.0, 0.0, 0.0, 0.0],
    [0.0, 0.0, 1.0, 0.0],
    [0.0, 0.0, 0.0, 1.0]
],
  "dcmmeta_shape": [104, 104, 60, 520],
  "dcmmeta_slice_dim": 2,
  "dcmmeta_version": 0.6,
  "global": {
    "const": {
      "AcquisitionMatrix": [104, 0, 0, 104],
      "AngioFlag": "N",
      "BitsAllocated": 16,
      "BitsStored": 16,
      "BodyPartExamined": "BRAIN",
      "Columns": 832,
      "EchoNumbers": 1,
      "EchoTime": 37.0,
      "EchoTrainLength": 104,
      "FlipAngle": 52.0,
      "HighBit": 15,
      "ImageOrientationPatient": [0.99793026631243, -0.0518229304334, 0.03807318556284, 0.06208499036561, 0.93069098281056, -0.3604993044188],
      "ImagePositionPatient": [-884.09899981338, -763.50361996845, 233.25812271553],
      "ImageType": [
        "ORIGINAL",
        "PRIMARY",
        "M",
        "MB",
        "ND",
        "MOSAIC"
],
      "ImagedNucleus": "1H",
      "ImagingFrequency": 123.258984,
      "InPlanePhaseEncodingDirection": "COL",
      "MRAcquisitionType": "2D",
      "MagneticFieldStrength": 3.0,
      "Manufacturer": "SIEMENS",
      "ManufacturerModelName": "Prisma_fit",
      "Modality": "MR",
      "NumberOfAverages": 1.0,
      "NumberOfPhaseEncodingSteps": 104,
      "PercentPhaseFieldOfView": 100.0,
      "PercentSampling": 100.0,
      "PerformedProcedureStepStartTime": "144934.184000",
      "PhotometricInterpretation": "MONOCHROME2",
      "PixelBandwidth": 2290.0,
      "PixelRepresentation": 0,
      "PixelSpacing": [2.0, 2.0],
      "ProtocolName": "func_task-shinobi_run-1",
      "RepetitionTime": 1490.0,
      "Rows": 832,
      "SAR": 0.03209019757993,
      "SamplesPerPixel": 1,
      "ScanOptions": "FS",
      "ScanningSequence": "EP",
      "SequenceName": "epfid2d1_104",
      "SequenceVariant": [
        "SK",
        "SS"
],
      "SeriesDescription": "func_task-shinobi_run-1",
      "SeriesNumber": 9,
      "SeriesTime": "152351.333000",
      "SliceLocation": -44.274554756672,
      "SliceThickness": 2.0,
      "SmallestImagePixelValue": 0,
      "SoftwareVersions": "syngo MR E11",
      "SpacingBetweenSlices": 1.9999999498724,
      "SpecificCharacterSet": "ISO_IR 100",
      "StudyID": "1",
      "StudyTime": "144934.096000",
      "TransmitCoilName": "Body",
      "VariableFlipAngleFlag": "N",
      "WindowCenterWidthExplanation": "Algo1",
      "dBdt": 0.0},
    "slices": {}
  },
  "time": {
    "samples": {
      "AcquisitionNumber": [1, 2, 3, 4, 5, 6, 7, 8, 9, 10, 11, 12, 13, 14, 15, 16, 17, 18, 19, 20, 21, 22, 23, 24, 25, 26, 27, 28, 29, 30, 31, 32, 33, 34, 35, 36, 37, 38, 39, 40, 41, 42, 43, 44, 45, 46, 47, 48, 49, 50, 51, 52, 53, 54, 55, 56, 57, 58, 59, 60, 61, 62, 63, 64, 65, 66, 67, 68, 69, 70, 71, 72, 73, 74, 75, 76, 77, 78, 79, 80, 81, 82, 83, 84, 85, 86, 87, 88, 89, 90, 91, 92, 93, 94, 95, 96, 97, 98, 99, 100, 101, 102, 103, 104, 105, 106, 107, 108, 109, 110, 111, 112, 113, 114, 115, 116, 117, 118, 119, 120, 121, 122, 123, 124, 125, 126, 127, 128, 129, 130, 131, 132, 133, 134, 135, 136, 137, 138, 139, 140, 141, 142, 143, 144, 145, 146, 147, 148, 149, 150, 151, 152, 153, 154, 155, 156, 157, 158, 159, 160, 161, 162, 163, 164, 165, 166, 167, 168, 169, 170, 171, 172, 173, 174, 175, 176, 177, 178, 179, 180, 181, 182, 183, 184, 185, 186, 187, 188, 189, 190, 191, 192, 193, 194, 195, 196, 197, 198, 199, 200, 201, 202, 203, 204, 205, 206, 207, 208, 209, 210, 211, 212, 213, 214, 215, 216, 217, 218, 219, 220, 221, 222, 223, 224, 225, 226, 227, 228, 229, 230, 231, 232, 233, 234, 235, 236, 237, 238, 239, 240, 241, 242, 243, 244, 245, 246, 247, 248, 249, 250, 251, 252, 253, 254, 255, 256, 257, 258, 259, 260, 261, 262, 263, 264, 265, 266, 267, 268, 269, 270, 271, 272, 273, 274, 275, 276, 277, 278, 279, 280, 281, 282, 283, 284, 285, 286, 287, 288, 289, 290, 291, 292, 293, 294, 295, 296, 297, 298, 299, 300, 301, 302, 303, 304, 305, 306, 307, 308, 309, 310, 311, 312, 313, 314, 315, 316, 317, 318, 319, 320, 321, 322, 323, 324, 325, 326, 327, 328, 329, 330, 331, 332, 333, 334, 335, 336, 337, 338, 339, 340, 341, 342, 343, 344, 345, 346, 347, 348, 349, 350, 351, 352, 353, 354, 355, 356, 357, 358, 359, 360, 361, 362, 363, 364, 365, 366, 367, 368, 369, 370, 371, 372, 373, 374, 375, 376, 377, 378, 379, 380, 381, 382, 383, 384, 385, 386, 387, 388, 389, 390, 391, 392, 393, 394, 395, 396, 397, 398, 399, 400, 401, 402, 403, 404, 405, 406, 407, 408, 409, 410, 411, 412, 413, 414, 415, 416, 417, 418, 419, 420, 421, 422, 423, 424, 425, 426, 427, 428, 429, 430, 431, 432, 433, 434, 435, 436, 437, 438, 439, 440, 441, 442, 443, 444, 445, 446, 447, 448, 449, 450, 451, 452, 453, 454, 455, 456, 457, 458, 459, 460, 461, 462, 463, 464, 465, 466, 467, 468, 469, 470, 471, 472, 473, 474, 475, 476, 477, 478, 479, 480, 481, 482, 483, 484, 485, 486, 487, 488, 489, 490, 491, 492, 493, 494, 495, 496, 497, 498, 499, 500, 501, 502, 503, 504, 505, 506, 507, 508, 509, 510, 511, 512, 513, 514, 515, 516, 517, 518, 519, 520],
      "AcquisitionTime": ["152251.410000", "152252.900000", "152254.390000", "152255.880000", "152257.370000", "152258.860000", "152300.350000", "152301.840000", "152303.330000", "152304.820000", "152306.310000", "152307.800000", "152309.290000", "152310.780000", "152312.270000", "152313.760000", "152315.250000", "152316.740000", "152318.230000", "152319.720000", "152321.210000", "152322.700000", "152324.190000", "152325.680000", "152327.170000", "152328.660000", "152330.150000", "152331.640000", "152333.130000", "152334.620000", "152336.110000", "152337.600000", "152339.090000", "152340.580000", "152342.070000", "152343.560000", "152345.050000", "152346.540000", "152348.030000", "152349.520000", "152351.010000", "152352.500000", "152353.990000", "152355.480000", "152356.970000", "152358.460000", "152359.950000", "152401.440000", "152402.930000", "152404.420000", "152405.910000", "152407.400000", "152408.890000", "152410.380000", "152411.870000", "152413.360000", "152414.850000", "152416.340000", "152417.830000", "152419.320000", "152420.810000", "152422.300000", "152423.790000", "152425.280000", "152426.770000", "152428.260000", "152429.750000", "152431.240000", "152432.730000", "152434.220000", "152435.710000", "152437.200000", "152438.690000", "152440.180000", "152441.670000", "152443.160000", "152444.650000", "152446.140000", "152447.630000", "152449.120000", "152450.610000", "152452.100000", "152453.590000", "152455.080000", "152456.570000", "152458.060000", "152459.550000", "152501.040000", "152502.530000", "152504.020000", "152505.510000", "152507.000000", "152508.490000", "152509.980000", "152511.470000", "152512.960000", "152514.450000", "152515.940000", "152517.430000", "152518.920000", "152520.410000", "152521.900000", "152523.390000", "152524.880000", "152526.370000", "152527.860000", "152529.350000", "152530.840000", "152532.330000", "152533.820000", "152535.310000", "152536.800000", "152538.290000", "152539.780000", "152541.270000", "152542.760000", "152544.250000", "152545.740000", "152547.230000", "152548.720000", "152550.210000", "152551.700000", "152553.190000", "152554.680000", "152556.170000", "152557.660000", "152559.150000", "152600.640000", "152602.130000", "152603.620000", "152605.110000", "152606.600000", "152608.090000", "152609.580000", "152611.070000", "152612.560000", "152614.050000", "152615.540000", "152617.030000", "152618.520000", "152620.010000", "152621.500000", "152622.990000", "152624.480000", "152625.970000", "152627.460000", "152628.950000", "152630.440000", "152631.930000", "152633.420000", "152634.910000", "152636.400000", "152637.890000", "152639.380000", "152640.870000", "152642.360000", "152643.850000", "152645.340000", "152646.830000", "152648.320000", "152649.810000", "152651.300000", "152652.790000", "152654.280000", "152655.770000", "152657.260000", "152658.750000", "152700.240000", "152701.730000", "152703.220000", "152704.710000", "152706.200000", "152707.690000", "152709.180000", "152710.670000", "152712.160000", "152713.650000", "152715.140000", "152716.630000", "152718.120000", "152719.610000", "152721.100000", "152722.590000", "152724.080000", "152725.570000", "152727.060000", "152728.550000", "152730.040000", "152731.530000", "152733.020000", "152734.510000", "152736.000000", "152737.490000", "152738.980000", "152740.470000", "152741.960000", "152743.450000", "152744.940000", "152746.430000", "152747.920000", "152749.410000", "152750.900000", "152752.390000", "152753.880000", "152755.370000", "152756.860000", "152758.350000", "152759.840000", "152801.330000", "152802.820000", "152804.310000", "152805.800000", "152807.290000", "152808.780000", "152810.270000", "152811.760000", "152813.250000", "152814.740000", "152816.230000", "152817.720000", "152819.210000", "152820.700000", "152822.190000", "152823.680000", "152825.170000", "152826.660000", "152828.150000", "152829.640000", "152831.130000", "152832.620000", "152834.110000", "152835.600000", "152837.090000", "152838.580000", "152840.070000", "152841.560000", "152843.050000", "152844.540000", "152846.030000", "152847.520000", "152849.010000", "152850.500000", "152851.990000", "152853.480000", "152854.970000", "152856.460000", "152857.950000", "152859.440000", "152900.930000", "152902.420000", "152903.910000", "152905.400000", "152906.890000", "152908.380000", "152909.870000", "152911.360000", "152912.850000", "152914.340000", "152915.830000", "152917.320000", "152918.810000", "152920.300000", "152921.790000", "152923.280000", "152924.770000", "152926.260000", "152927.750000", "152929.240000", "152930.730000", "152932.220000", "152933.710000", "152935.200000", "152936.690000", "152938.180000", "152939.670000", "152941.160000", "152942.650000", "152944.140000", "152945.630000", "152947.120000", "152948.610000", "152950.100000", "152951.590000", "152953.080000", "152954.570000", "152956.060000", "152957.550000", "152959.040000", "153000.530000", "153002.020000", "153003.510000", "153005.000000", "153006.490000", "153007.980000", "153009.470000", "153010.960000", "153012.450000", "153013.940000", "153015.430000", "153016.920000", "153018.410000", "153019.900000", "153021.390000", "153022.880000", "153024.370000", "153025.860000", "153027.350000", "153028.840000", "153030.330000", "153031.820000", "153033.310000", "153034.800000", "153036.290000", "153037.780000", "153039.270000", "153040.760000", "153042.250000", "153043.740000", "153045.230000", "153046.720000", "153048.210000", "153049.700000", "153051.190000", "153052.680000", "153054.170000", "153055.660000", "153057.150000", "153058.640000", "153100.130000", "153101.620000", "153103.110000", "153104.600000", "153106.090000", "153107.580000", "153109.070000", "153110.560000", "153112.050000", "153113.540000", "153115.030000", "153116.520000", "153118.010000", "153119.500000", "153120.990000", "153122.480000", "153123.970000", "153125.460000", "153126.950000", "153128.440000", "153129.930000", "153131.420000", "153132.910000", "153134.400000", "153135.890000", "153137.380000", "153138.870000", "153140.360000", "153141.850000", "153143.340000", "153144.830000", "153146.320000", "153147.810000", "153149.300000", "153150.790000", "153152.280000", "153153.770000", "153155.260000", "153156.750000", "153158.240000", "153159.730000", "153201.220000", "153202.710000", "153204.200000", "153205.690000", "153207.180000", "153208.670000", "153210.160000", "153211.650000", "153213.140000", "153214.630000", "153216.120000", "153217.610000", "153219.100000", "153220.590000", "153222.080000", "153223.570000", "153225.060000", "153226.550000", "153228.040000", "153229.530000", "153231.020000", "153232.510000", "153234.000000", "153235.490000", "153236.980000", "153238.470000", "153239.960000", "153241.450000", "153242.940000", "153244.430000", "153245.920000", "153247.410000", "153248.900000", "153250.390000", "153251.880000", "153253.370000", "153254.860000", "153256.350000", "153257.840000", "153259.330000", "153300.820000", "153302.310000", "153303.800000", "153305.290000", "153306.780000", "153308.270000", "153309.760000", "153311.250000", "153312.740000", "153314.230000", "153315.720000", "153317.210000", "153318.700000", "153320.190000", "153321.680000", "153323.170000", "153324.660000", "153326.150000", "153327.640000", "153329.130000", "153330.620000", "153332.110000", "153333.600000", "153335.090000", "153336.580000", "153338.070000", "153339.560000", "153341.050000", "153342.540000", "153344.030000", "153345.520000", "153347.010000", "153348.500000", "153349.990000", "153351.480000", "153352.970000", "153354.460000", "153355.950000", "153357.440000", "153358.930000", "153400.420000", "153401.910000", "153403.400000", "153404.890000", "153406.380000", "153407.870000", "153409.360000", "153410.850000", "153412.340000", "153413.830000", "153415.320000", "153416.810000", "153418.300000", "153419.790000", "153421.280000", "153422.770000", "153424.260000", "153425.750000", "153427.240000", "153428.730000", "153430.220000", "153431.710000", "153433.200000", "153434.690000", "153436.180000", "153437.670000", "153439.160000", "153440.650000", "153442.140000", "153443.630000", "153445.120000", "153446.610000", "153448.100000", "153449.590000", "153451.080000", "153452.570000", "153454.060000", "153455.550000", "153457.040000", "153458.530000", "153500.020000", "153501.510000", "153503.000000", "153504.490000", "153505.980000", "153507.470000", "153508.960000", "153510.450000", "153511.940000", "153513.430000", "153514.920000", "153516.410000", "153517.900000", "153519.390000", "153520.880000", "153522.370000", "153523.860000", "153525.350000", "153526.840000", "153528.330000", "153529.820000", "153531.310000", "153532.800000", "153534.290000", "153535.780000", "153537.270000", "153538.760000", "153540.250000", "153541.740000", "153543.230000", "153544.720000"],
      "ContentTime": ["152351.336000", "152351.339000", "152351.342000", "152351.345000", "152351.348000", "152411.295000", "152411.298000", "152411.301000", "152411.304000", "152411.306000", "152411.309000", "152411.312000", "152411.315000", "152411.318000", "152411.321000", "152411.324000", "152411.333000", "152411.336000", "152411.339000", "152411.342000", "152411.345000", "152411.348000", "152411.350000", "152411.353000", "152411.362000", "152431.295000", "152431.298000", "152431.301000", "152431.304000", "152431.307000", "152431.310000", "152431.312000", "152431.315000", "152431.318000", "152431.323000", "152431.326000", "152431.329000", "152431.332000", "152431.335000", "152431.338000", "152431.341000", "152431.344000", "152431.347000", "152431.350000", "152431.352000", "152451.296000", "152451.299000", "152451.302000", "152451.305000", "152451.308000", "152451.311000", "152451.313000", "152451.317000", "152451.320000", "152451.323000", "152451.326000", "152451.329000", "152451.340000", "152451.343000", "152451.346000", "152451.348000", "152451.351000", "152451.354000", "152451.357000", "152451.373000", "152451.383000", "152511.296000", "152511.299000", "152511.302000", "152511.305000", "152511.308000", "152511.311000", "152511.313000", "152511.316000", "152511.319000", "152511.322000", "152511.325000", "152511.328000", "152511.331000", "152511.334000", "152511.337000", "152511.340000", "152511.343000", "152511.346000", "152511.349000", "152511.352000", "152531.295000", "152531.298000", "152531.301000", "152531.304000", "152531.307000", "152531.310000", "152531.313000", "152531.316000", "152531.319000", "152531.321000", "152531.324000", "152531.327000", "152531.330000", "152531.333000", "152531.336000", "152531.339000", "152531.342000", "152531.345000", "152531.348000", "152531.351000", "152611.295000", "152611.298000", "152611.301000", "152611.304000", "152611.307000", "152611.310000", "152611.313000", "152611.316000", "152611.318000", "152611.322000", "152611.325000", "152611.327000", "152611.330000", "152611.333000", "152611.336000", "152611.339000", "152611.342000", "152611.345000", "152611.355000", "152611.358000", "152611.360000", "152611.363000", "152611.366000", "152611.369000", "152611.372000", "152611.375000", "152611.378000", "152651.295000", "152651.298000", "152651.301000", "152651.304000", "152651.307000", "152651.310000", "152651.313000", "152651.316000", "152651.319000", "152651.322000", "152651.325000", "152651.327000", "152651.330000", "152651.333000", "152651.336000", "152651.339000", "152651.342000", "152651.345000", "152651.348000", "152651.351000", "152651.354000", "152651.357000", "152651.360000", "152651.363000", "152651.366000", "152651.369000", "152651.372000", "152731.296000", "152731.299000", "152731.302000", "152731.305000", "152731.308000", "152731.311000", "152731.314000", "152731.317000", "152731.320000", "152731.323000", "152731.326000", "152731.329000", "152731.332000", "152731.334000", "152731.337000", "152731.340000", "152731.343000", "152731.346000", "152731.349000", "152731.352000", "152731.355000", "152731.358000", "152731.361000", "152731.364000", "152731.367000", "152731.370000", "152731.372000", "152811.295000", "152811.298000", "152811.301000", "152811.304000", "152811.307000", "152811.310000", "152811.322000", "152811.325000", "152811.328000", "152811.330000", "152811.334000", "152811.336000", "152811.339000", "152811.342000", "152811.345000", "152811.348000", "152811.351000", "152811.354000", "152811.357000", "152811.360000", "152811.363000", "152811.366000", "152811.369000", "152811.371000", "152811.374000", "152811.377000", "152811.380000", "152851.295000", "152851.298000", "152851.301000", "152851.304000", "152851.307000", "152851.310000", "152851.313000", "152851.316000", "152851.319000", "152851.322000", "152851.325000", "152851.329000", "152851.332000", "152851.335000", "152851.338000", "152851.342000", "152851.345000", "152851.348000", "152851.351000", "152851.354000", "152851.357000", "152851.360000", "152851.363000", "152851.366000", "152851.369000", "152851.372000", "152931.296000", "152931.299000", "152931.302000", "152931.305000", "152931.308000", "152931.311000", "152931.314000", "152931.317000", "152931.320000", "152931.323000", "152931.326000", "152931.329000", "152931.332000", "152931.334000", "152931.337000", "152931.340000", "152931.343000", "152931.346000", "152931.349000", "152931.352000", "152931.372000", "152931.375000", "152931.378000", "152931.381000", "152931.384000", "152931.387000", "152931.390000", "153011.295000", "153011.298000", "153011.301000", "153011.304000", "153011.307000", "153011.310000", "153011.313000", "153011.316000", "153011.319000", "153011.322000", "153011.325000", "153011.328000", "153011.331000", "153011.334000", "153011.337000", "153011.340000", "153011.342000", "153011.345000", "153011.348000", "153011.351000", "153011.354000", "153011.357000", "153011.360000", "153011.363000", "153011.366000", "153011.369000", "153011.372000", "153051.295000", "153051.298000", "153051.301000", "153051.304000", "153051.307000", "153051.310000", "153051.313000", "153051.316000", "153051.319000", "153051.322000", "153051.325000", "153051.328000", "153051.331000", "153051.334000", "153051.337000", "153051.340000", "153051.342000", "153051.346000", "153051.348000", "153051.351000", "153051.354000", "153051.357000", "153051.360000", "153051.363000", "153051.366000", "153051.369000", "153051.372000", "153131.295000", "153131.298000", "153131.301000", "153131.304000", "153131.307000", "153131.310000", "153131.313000", "153131.316000", "153131.319000", "153131.322000", "153131.325000", "153131.328000", "153131.331000", "153131.334000", "153131.336000", "153131.339000", "153131.342000", "153131.345000", "153131.348000", "153131.351000", "153131.354000", "153131.357000", "153131.360000", "153131.363000", "153131.366000", "153131.369000", "153131.372000", "153211.296000", "153211.299000", "153211.302000", "153211.305000", "153211.308000", "153211.311000", "153211.314000", "153211.317000", "153211.320000", "153211.323000", "153211.326000", "153211.329000", "153211.332000", "153211.335000", "153211.338000", "153211.341000", "153211.343000", "153211.346000", "153211.349000", "153211.352000", "153211.355000", "153211.358000", "153211.361000", "153211.364000", "153211.367000", "153211.370000", "153211.373000", "153251.295000", "153251.298000", "153251.311000", "153251.314000", "153251.317000", "153251.320000", "153251.323000", "153251.326000", "153251.328000", "153251.331000", "153251.334000", "153251.337000", "153251.340000", "153251.343000", "153251.346000", "153251.349000", "153251.352000", "153251.355000", "153251.358000", "153251.361000", "153251.364000", "153251.366000", "153251.370000", "153251.372000", "153251.375000", "153251.378000", "153251.382000", "153331.295000", "153331.298000", "153331.301000", "153331.304000", "153331.307000", "153331.310000", "153331.313000", "153331.316000", "153331.319000", "153331.322000", "153331.325000", "153331.328000", "153331.331000", "153331.334000", "153331.337000", "153331.340000", "153331.343000", "153331.346000", "153331.349000", "153331.352000", "153331.355000", "153331.358000", "153331.361000", "153331.364000", "153331.367000", "153331.370000", "153411.296000", "153411.299000", "153411.302000", "153411.322000", "153411.325000", "153411.328000", "153411.331000", "153411.334000", "153411.337000", "153411.340000", "153411.342000", "153411.346000", "153411.349000", "153411.351000", "153411.354000", "153411.357000", "153411.360000", "153411.363000", "153411.366000", "153411.369000", "153411.372000", "153411.375000", "153411.378000", "153411.381000", "153411.384000", "153411.387000", "153411.390000", "153451.295000", "153451.298000", "153451.301000", "153451.304000", "153451.307000", "153451.310000", "153451.313000", "153451.316000", "153451.319000", "153451.322000", "153451.325000", "153451.328000", "153451.331000", "153451.334000", "153451.337000", "153451.340000", "153451.351000", "153451.354000", "153451.357000", "153451.360000", "153451.363000", "153451.366000", "153451.369000", "153451.372000", "153451.375000", "153451.378000", "153451.381000", "153531.295000", "153531.309000", "153531.312000", "153531.315000", "153531.318000", "153531.321000", "153531.324000", "153531.327000", "153531.330000", "153531.333000", "153531.336000", "153531.339000", "153531.342000", "153531.345000", "153531.348000", "153531.351000", "153531.353000", "153531.356000", "153531.359000", "153531.362000", "153531.365000", "153531.368000", "153531.371000", "153531.374000", "153531.377000", "153531.380000", "153531.383000", "153547.673000", "153547.676000", "153547.679000", "153547.682000", "153547.685000", "153547.688000", "153547.691000", "153547.694000", "153547.698000", "153547.701000", "153547.703000"],
