{
  "AcquisitionMatrixPE": 104,
  "AcquisitionNumber": 1,
  "AcquisitionTime": "10:07:10.550000",
  "BandwidthPerPixelPhaseEncode": 17.17,
  "BaseResolution": 104,
  "BodyPartExamined": "BRAIN",
  "CoilString": "HC1-7;NC1_2",
  "ConsistencyInfo": "N4_VE11C_LATEST_20160120",
  "ConversionSoftware": "dcm2niix",
  "ConversionSoftwareVersion": "v1.0.20190902",
  "DerivedVendorReportedEchoSpacing": 0.000560011,
  "DeviceSerialNumber": "167006",
  "DwellTime": 2.1e-06,
  "EchoTime": 0.037,
  "EchoTrainLength": 104,
  "EffectiveEchoSpacing": 0.000560011,
  "FlipAngle": 52,
  "ImageComments": "Unaliased_MB4_PE3_LB",
  "ImageOrientationPatientDICOM": [0.995341, 0.0712218, 0.0649841, -0.0498993, 0.957268, -0.284863],
  "ImageType": [
    "ORIGINAL",
    "PRIMARY",
    "M",
    "MB",
    "ND",
    "MOSAIC"
],
  "ImagingFrequency": 123.259,
  "InPlanePhaseEncodingDirectionDICOM": "COL",
  "InstitutionAddress": "Chemin_Queen-Mary_4565_Montreal_District_CA_H3W_1W5",
  "InstitutionName": "IUGM",
  "InstitutionalDepartmentName": "Department",
  "MRAcquisitionType": "2D",
  "MagneticFieldStrength": 3,
  "Manufacturer": "Siemens",
  "ManufacturersModelName": "Prisma_fit",
  "Modality": "MR",
  "MultibandAccelerationFactor": 4,
  "PartialFourier": 1,
  "PatientPosition": "HFS",
  "PercentPhaseFOV": 100,
  "PhaseEncodingDirection": "j",
  "PhaseEncodingSteps": 104,
  "PhaseResolution": 1,
  "PixelBandwidth": 2290,
  "ProcedureStepDescription": "games_shinobi",
  "ProtocolName": "func_task-shinobi_run-2",
  "PulseSequenceDetails": "%CustomerSeq%_cmrr_mbep2d_bold",
  "ReceiveCoilActiveElements": "HC1-7;NC1,2",
  "ReceiveCoilName": "HeadNeck_64",
  "ReconMatrixPE": 104,
  "RepetitionTime": 1.49,
  "SAR": 0.0379346,
  "ScanOptions": "FS",
  "ScanningSequence": "EP",
  "SequenceName": "epfid2d1_104",
  "SequenceVariant": "SK_SS",
  "SeriesDescription": "func_task-shinobi_run-2",
  "SeriesNumber": 11,
  "ShimSetting": [644, -7211, -8822, 655, 106, -29, 91, -5],
  "SliceThickness": 2,
  "SliceTiming": [0, 0.7825, 0.0975, 0.8825, 0.195, 0.98, 0.2925, 1.0775, 0.3925, 1.175, 0.49, 1.2725, 0.5875, 1.3725, 0.685, 0, 0.7825, 0.0975, 0.8825, 0.195, 0.98, 0.2925, 1.0775, 0.3925, 1.175, 0.49, 1.2725, 0.5875, 1.3725, 0.685, 0, 0.7825, 0.0975, 0.8825, 0.195, 0.98, 0.2925, 1.0775, 0.3925, 1.175, 0.49, 1.2725, 0.5875, 1.3725, 0.685, 0, 0.7825, 0.0975, 0.8825, 0.195, 0.98, 0.2925, 1.0775, 0.3925, 1.175, 0.49, 1.2725, 0.5875, 1.3725, 0.685],
  "SoftwareVersions": "syngo_MR_E11",
  "SpacingBetweenSlices": 2,
  "StationName": "MRC35049",
  "TaskName": "shinobi",
  "TotalReadoutTime": 0.0576811,
  "TxRefAmp": 243.781,
  "WipMemBlock": "fb1b9567-c6ef-46fa-a652-b3c845056c6e||Sequence: R016 ve11c/master r/e634e98; Dec 19 2017 11:00:25 by eja",
  "dcmmeta_affine": [
    [-1.99068284034729, -0.09979857504367828, 0.1649913489818573, 107.27538299560547],
    [-0.14244364202022552, 1.914536952972412, -0.5605873465538025, -57.735923767089844],
    [0.12996810674667358, 0.5697267651557922, 1.9127256870269775, -57.55857467651367],
    [0.0, 0.0, 0.0, 1.0]
],
  "dcmmeta_reorient_transform": [
    [0.0, -1.0, 0.0, 103.0],
    [1.0, 0.0, 0.0, 0.0],
    [0.0, 0.0, 1.0, 0.0],
    [0.0, 0.0, 0.0, 1.0]
],
  "dcmmeta_shape": [104, 104, 60, 418],
  "dcmmeta_slice_dim": 2,
  "dcmmeta_version": 0.6,
  "global": {
    "const": {
      "AcquisitionMatrix": [104, 0, 0, 104],
      "AngioFlag": "N",
      "BitsAllocated": 16,
      "BitsStored": 16,
      "BodyPartExamined": "BRAIN",
      "Columns": 832,
      "EchoNumbers": 1,
      "EchoTime": 37.0,
      "EchoTrainLength": 104,
      "FlipAngle": 52.0,
      "HighBit": 15,
      "ImageOrientationPatient": [0.99534141110874, 0.07122182156631, 0.0649840554662, -0.049899285879, 0.95726846403356, -0.2848633866182],
      "ImagePositionPatient": [-785.27799799427, -888.20230781685, 161.19543619059],
      "ImageType": [
        "ORIGINAL",
        "PRIMARY",
        "M",
        "MB",
        "ND",
        "MOSAIC"
],
      "ImagedNucleus": "1H",
      "ImagingFrequency": 123.259298,
      "InPlanePhaseEncodingDirection": "COL",
      "MRAcquisitionType": "2D",
      "MagneticFieldStrength": 3.0,
      "Manufacturer": "SIEMENS",
      "ManufacturerModelName": "Prisma_fit",
      "Modality": "MR",
      "NumberOfAverages": 1.0,
      "NumberOfPhaseEncodingSteps": 104,
      "PercentPhaseFieldOfView": 100.0,
      "PercentSampling": 100.0,
      "PerformedProcedureStepStartTime": "093933.689000",
      "PhotometricInterpretation": "MONOCHROME2",
      "PixelBandwidth": 2290.0,
      "PixelRepresentation": 0,
      "PixelSpacing": [2.0, 2.0],
      "ProtocolName": "func_task-shinobi_run-2",
      "RepetitionTime": 1490.0,
      "Rows": 832,
      "SAR": 0.03793458882494,
      "SamplesPerPixel": 1,
      "ScanOptions": "FS",
      "ScanningSequence": "EP",
      "SequenceName": "epfid2d1_104",
      "SequenceVariant": [
        "SK",
        "SS"
],
      "SeriesDescription": "func_task-shinobi_run-2",
      "SeriesNumber": 11,
      "SeriesTime": "100842.567000",
      "SliceLocation": -30.014113953445,
      "SliceThickness": 2.0,
      "SmallestImagePixelValue": 0,
      "SoftwareVersions": "syngo MR E11",
      "SpacingBetweenSlices": 2.0000000101455,
      "SpecificCharacterSet": "ISO_IR 100",
      "StudyID": "1",
      "StudyTime": "093933.610000",
      "TransmitCoilName": "Body",
      "VariableFlipAngleFlag": "N",
      "WindowCenterWidthExplanation": "Algo1",
      "dBdt": 0.0},
    "slices": {}
  },
  "time": {
    "samples": {
      "AcquisitionNumber": [1, 2, 3, 4, 5, 6, 7, 8, 9, 10, 11, 12, 13, 14, 15, 16, 17, 18, 19, 20, 21, 22, 23, 24, 25, 26, 27, 28, 29, 30, 31, 32, 33, 34, 35, 36, 37, 38, 39, 40, 41, 42, 43, 44, 45, 46, 47, 48, 49, 50, 51, 52, 53, 54, 55, 56, 57, 58, 59, 60, 61, 62, 63, 64, 65, 66, 67, 68, 69, 70, 71, 72, 73, 74, 75, 76, 77, 78, 79, 80, 81, 82, 83, 84, 85, 86, 87, 88, 89, 90, 91, 92, 93, 94, 95, 96, 97, 98, 99, 100, 101, 102, 103, 104, 105, 106, 107, 108, 109, 110, 111, 112, 113, 114, 115, 116, 117, 118, 119, 120, 121, 122, 123, 124, 125, 126, 127, 128, 129, 130, 131, 132, 133, 134, 135, 136, 137, 138, 139, 140, 141, 142, 143, 144, 145, 146, 147, 148, 149, 150, 151, 152, 153, 154, 155, 156, 157, 158, 159, 160, 161, 162, 163, 164, 165, 166, 167, 168, 169, 170, 171, 172, 173, 174, 175, 176, 177, 178, 179, 180, 181, 182, 183, 184, 185, 186, 187, 188, 189, 190, 191, 192, 193, 194, 195, 196, 197, 198, 199, 200, 201, 202, 203, 204, 205, 206, 207, 208, 209, 210, 211, 212, 213, 214, 215, 216, 217, 218, 219, 220, 221, 222, 223, 224, 225, 226, 227, 228, 229, 230, 231, 232, 233, 234, 235, 236, 237, 238, 239, 240, 241, 242, 243, 244, 245, 246, 247, 248, 249, 250, 251, 252, 253, 254, 255, 256, 257, 258, 259, 260, 261, 262, 263, 264, 265, 266, 267, 268, 269, 270, 271, 272, 273, 274, 275, 276, 277, 278, 279, 280, 281, 282, 283, 284, 285, 286, 287, 288, 289, 290, 291, 292, 293, 294, 295, 296, 297, 298, 299, 300, 301, 302, 303, 304, 305, 306, 307, 308, 309, 310, 311, 312, 313, 314, 315, 316, 317, 318, 319, 320, 321, 322, 323, 324, 325, 326, 327, 328, 329, 330, 331, 332, 333, 334, 335, 336, 337, 338, 339, 340, 341, 342, 343, 344, 345, 346, 347, 348, 349, 350, 351, 352, 353, 354, 355, 356, 357, 358, 359, 360, 361, 362, 363, 364, 365, 366, 367, 368, 369, 370, 371, 372, 373, 374, 375, 376, 377, 378, 379, 380, 381, 382, 383, 384, 385, 386, 387, 388, 389, 390, 391, 392, 393, 394, 395, 396, 397, 398, 399, 400, 401, 402, 403, 404, 405, 406, 407, 408, 409, 410, 411, 412, 413, 414, 415, 416, 417, 418],
      "AcquisitionTime": ["100710.550000", "100712.040000", "100713.530000", "100715.020000", "100716.510000", "100718.000000", "100719.490000", "100720.980000", "100722.470000", "100723.960000", "100725.450000", "100726.940000", "100728.430000", "100729.920000", "100731.410000", "100732.900000", "100734.390000", "100735.880000", "100737.370000", "100738.860000", "100740.350000", "100741.840000", "100743.330000", "100744.820000", "100746.310000", "100747.800000", "100749.290000", "100750.780000", "100752.270000", "100753.760000", "100755.250000", "100756.740000", "100758.230000", "100759.720000", "100801.210000", "100802.700000", "100804.190000", "100805.680000", "100807.170000", "100808.660000", "100810.150000", "100811.640000", "100813.130000", "100814.620000", "100816.110000", "100817.600000", "100819.090000", "100820.580000", "100822.070000", "100823.560000", "100825.050000", "100826.540000", "100828.030000", "100829.520000", "100831.010000", "100832.500000", "100833.990000", "100835.480000", "100836.970000", "100838.460000", "100839.950000", "100841.440000", "100842.930000", "100844.420000", "100845.910000", "100847.400000", "100848.890000", "100850.380000", "100851.870000", "100853.360000", "100854.850000", "100856.340000", "100857.830000", "100859.320000", "100900.810000", "100902.300000", "100903.790000", "100905.280000", "100906.770000", "100908.260000", "100909.750000", "100911.240000", "100912.730000", "100914.220000", "100915.710000", "100917.200000", "100918.690000", "100920.180000", "100921.670000", "100923.160000", "100924.650000", "100926.140000", "100927.630000", "100929.120000", "100930.610000", "100932.100000", "100933.590000", "100935.080000", "100936.570000", "100938.060000", "100939.550000", "100941.040000", "100942.530000", "100944.020000", "100945.510000", "100947.000000", "100948.490000", "100949.980000", "100951.470000", "100952.960000", "100954.450000", "100955.940000", "100957.430000", "100958.920000", "101000.410000", "101001.900000", "101003.390000", "101004.880000", "101006.370000", "101007.860000", "101009.350000", "101010.840000", "101012.330000", "101013.820000", "101015.310000", "101016.800000", "101018.290000", "101019.780000", "101021.270000", "101022.760000", "101024.250000", "101025.740000", "101027.230000", "101028.720000", "101030.210000", "101031.700000", "101033.190000", "101034.680000", "101036.170000", "101037.660000", "101039.150000", "101040.640000", "101042.130000", "101043.620000", "101045.110000", "101046.600000", "101048.090000", "101049.580000", "101051.070000", "101052.560000", "101054.050000", "101055.540000", "101057.030000", "101058.520000", "101100.010000", "101101.500000", "101102.990000", "101104.480000", "101105.970000", "101107.460000", "101108.950000", "101110.440000", "101111.930000", "101113.420000", "101114.910000", "101116.400000", "101117.890000", "101119.380000", "101120.870000", "101122.360000", "101123.850000", "101125.340000", "101126.830000", "101128.320000", "101129.810000", "101131.300000", "101132.790000", "101134.280000", "101135.770000", "101137.260000", "101138.750000", "101140.240000", "101141.730000", "101143.220000", "101144.710000", "101146.200000", "101147.690000", "101149.180000", "101150.670000", "101152.160000", "101153.650000", "101155.140000", "101156.630000", "101158.120000", "101159.610000", "101201.100000", "101202.590000", "101204.080000", "101205.570000", "101207.060000", "101208.550000", "101210.040000", "101211.530000", "101213.020000", "101214.510000", "101216.000000", "101217.490000", "101218.980000", "101220.470000", "101221.960000", "101223.450000", "101224.940000", "101226.430000", "101227.920000", "101229.410000", "101230.900000", "101232.390000", "101233.880000", "101235.370000", "101236.860000", "101238.350000", "101239.840000", "101241.330000", "101242.820000", "101244.310000", "101245.800000", "101247.290000", "101248.780000", "101250.270000", "101251.760000", "101253.250000", "101254.740000", "101256.230000", "101257.720000", "101259.210000", "101300.700000", "101302.190000", "101303.680000", "101305.170000", "101306.660000", "101308.150000", "101309.640000", "101311.130000", "101312.620000", "101314.110000", "101315.600000", "101317.090000", "101318.580000", "101320.070000", "101321.560000", "101323.050000", "101324.540000", "101326.030000", "101327.520000", "101329.010000", "101330.500000", "101331.990000", "101333.480000", "101334.970000", "101336.460000", "101337.950000", "101339.440000", "101340.930000", "101342.420000", "101343.910000", "101345.400000", "101346.890000", "101348.380000", "101349.870000", "101351.360000", "101352.850000", "101354.340000", "101355.830000", "101357.320000", "101358.810000", "101400.300000", "101401.790000", "101403.280000", "101404.770000", "101406.260000", "101407.750000", "101409.240000", "101410.730000", "101412.220000", "101413.710000", "101415.200000", "101416.690000", "101418.180000", "101419.670000", "101421.160000", "101422.650000", "101424.140000", "101425.630000", "101427.120000", "101428.610000", "101430.100000", "101431.590000", "101433.080000", "101434.570000", "101436.060000", "101437.550000", "101439.040000", "101440.530000", "101442.020000", "101443.510000", "101445.000000", "101446.490000", "101447.980000", "101449.470000", "101450.960000", "101452.450000", "101453.940000", "101455.430000", "101456.920000", "101458.410000", "101459.900000", "101501.390000", "101502.880000", "101504.370000", "101505.860000", "101507.350000", "101508.840000", "101510.330000", "101511.820000", "101513.310000", "101514.800000", "101516.290000", "101517.780000", "101519.270000", "101520.760000", "101522.250000", "101523.740000", "101525.230000", "101526.720000", "101528.210000", "101529.700000", "101531.190000", "101532.680000", "101534.170000", "101535.660000", "101537.150000", "101538.640000", "101540.130000", "101541.620000", "101543.110000", "101544.600000", "101546.090000", "101547.580000", "101549.070000", "101550.560000", "101552.050000", "101553.540000", "101555.030000", "101556.520000", "101558.010000", "101559.500000", "101600.990000", "101602.480000", "101603.970000", "101605.460000", "101606.950000", "101608.440000", "101609.930000", "101611.420000", "101612.910000", "101614.400000", "101615.890000", "101617.380000", "101618.870000", "101620.360000", "101621.850000", "101623.340000", "101624.830000", "101626.320000", "101627.810000", "101629.300000", "101630.790000", "101632.280000", "101633.770000", "101635.260000", "101636.750000", "101638.240000", "101639.730000", "101641.220000", "101642.710000", "101644.200000", "101645.690000", "101647.180000", "101648.670000", "101650.160000", "101651.650000", "101653.140000", "101654.630000", "101656.120000", "101657.610000", "101659.100000", "101700.590000", "101702.080000", "101703.570000", "101705.060000", "101706.550000", "101708.040000", "101709.530000", "101711.020000", "101712.510000", "101714.000000", "101715.490000", "101716.980000", "101718.470000", "101719.960000", "101721.450000", "101722.940000", "101724.430000", "101725.920000", "101727.410000", "101728.900000", "101730.390000", "101731.880000"],
      "ContentTime": ["100842.570000", "100842.573000", "100842.576000", "100842.579000", "100842.582000", "100842.585000", "100842.588000", "100842.591000", "100842.593000", "100842.596000", "100842.599000", "100842.602000", "100842.605000", "100842.608000", "100842.610000", "100842.613000", "100842.616000", "100842.619000", "100842.622000", "100842.625000", "100842.627000", "100842.630000", "100842.633000", "100842.636000", "100842.639000", "100842.642000", "100842.644000", "100842.647000", "100842.650000", "100842.653000", "100842.656000", "100842.659000", "100842.661000", "100842.664000", "100842.672000", "100842.675000", "100842.678000", "100842.681000", "100842.684000", "100902.544000", "100902.547000", "100902.550000", "100902.552000", "100902.555000", "100902.558000", "100902.561000", "100902.564000", "100902.567000", "100902.570000", "100902.573000", "100902.576000", "100902.579000", "100902.582000", "100902.608000", "100902.611000", "100902.614000", "100902.617000", "100902.619000", "100902.622000", "100922.544000", "100922.547000", "100922.550000", "100922.552000", "100922.555000", "100922.558000", "100922.561000", "100922.564000", "100922.567000", "100922.569000", "100922.572000", "100922.575000", "100922.578000", "100922.581000", "100922.583000", "100922.586000", "100922.589000", "100922.592000", "100922.595000", "100922.598000", "100922.601000", "100942.544000", "100942.547000", "100942.550000", "100942.552000", "100942.555000", "100942.558000", "100942.561000", "100942.564000", "100942.567000", "100942.569000", "100942.572000", "100942.575000", "100942.578000", "100942.581000", "100942.584000", "100942.587000", "100942.589000", "100942.592000", "100942.595000", "100942.598000", "101022.544000", "101022.547000", "101022.550000", "101022.553000", "101022.555000", "101022.558000", "101022.561000", "101022.564000", "101022.567000", "101022.570000", "101022.572000", "101022.575000", "101022.578000", "101022.581000", "101022.584000", "101022.587000", "101022.590000", "101022.592000", "101022.595000", "101022.598000", "101022.601000", "101022.604000", "101022.607000", "101022.609000", "101022.612000", "101022.615000", "101022.618000", "101022.621000", "101102.545000", "101102.548000", "101102.551000", "101102.554000", "101102.556000", "101102.559000", "101102.562000", "101102.565000", "101102.568000", "101102.571000", "101102.573000", "101102.576000", "101102.579000", "101102.582000", "101102.597000", "101102.600000", "101102.603000", "101102.605000", "101102.608000", "101102.611000", "101102.614000", "101102.617000", "101102.620000", "101102.622000", "101102.625000", "101102.628000", "101102.631000", "101142.544000", "101142.547000", "101142.550000", "101142.553000", "101142.560000", "101142.563000", "101142.566000", "101142.569000", "101142.571000", "101142.574000", "101142.577000", "101142.580000", "101142.583000", "101142.585000", "101142.588000", "101142.591000", "101142.594000", "101142.597000", "101142.600000", "101142.603000", "101142.605000", "101142.608000", "101142.611000", "101142.614000", "101142.617000", "101142.620000", "101142.622000", "101222.544000", "101222.547000", "101222.550000", "101222.553000", "101222.555000", "101222.558000", "101222.561000", "101222.564000", "101222.567000", "101222.569000", "101222.572000", "101222.575000", "101222.578000", "101222.581000", "101222.584000", "101222.587000", "101222.589000", "101222.592000", "101222.595000", "101222.598000", "101222.601000", "101222.604000", "101222.607000", "101222.609000", "101222.612000", "101222.615000", "101222.618000", "101302.544000", "101302.547000", "101302.550000", "101302.553000", "101302.556000", "101302.558000", "101302.561000", "101302.564000", "101302.567000", "101302.570000", "101302.573000", "101302.575000", "101302.578000", "101302.581000", "101302.584000", "101302.587000", "101302.590000", "101302.593000", "101302.595000", "101302.598000", "101302.601000", "101302.604000", "101302.607000", "101302.610000", "101302.612000", "101302.615000", "101302.618000", "101342.544000", "101342.547000", "101342.550000", "101342.553000", "101342.555000", "101342.558000", "101342.561000", "101342.564000", "101342.567000", "101342.570000", "101342.573000", "101342.576000", "101342.578000", "101342.581000", "101342.584000", "101342.587000", "101342.590000", "101342.593000", "101342.596000", "101342.598000", "101342.601000", "101342.604000", "101342.607000", "101342.610000", "101342.613000", "101342.616000", "101422.544000", "101422.547000", "101422.550000", "101422.553000", "101422.555000", "101422.558000", "101422.561000", "101422.564000", "101422.567000", "101422.570000", "101422.572000", "101422.575000", "101422.578000", "101422.581000", "101422.584000", "101422.587000", "101422.590000", "101422.592000", "101422.595000", "101422.598000", "101422.601000", "101422.604000", "101422.606000", "101422.609000", "101422.612000", "101422.615000", "101422.618000", "101502.544000", "101502.547000", "101502.550000", "101502.553000", "101502.556000", "101502.558000", "101502.561000", "101502.564000", "101502.567000", "101502.570000", "101502.573000", "101502.576000", "101502.578000", "101502.581000", "101502.584000", "101502.587000", "101502.590000", "101502.593000", "101502.596000", "101502.598000", "101502.601000", "101502.604000", "101502.607000", "101502.610000", "101502.613000", "101502.616000", "101502.618000", "101542.545000", "101542.548000", "101542.551000", "101542.554000", "101542.557000", "101542.559000", "101542.562000", "101542.565000", "101542.568000", "101542.571000", "101542.591000", "101542.594000", "101542.597000", "101542.599000", "101542.602000", "101542.605000", "101542.608000", "101542.611000", "101542.614000", "101542.617000", "101542.620000", "101542.622000", "101542.625000", "101542.628000", "101542.631000", "101542.634000", "101542.637000", "101622.544000", "101622.547000", "101622.550000", "101622.553000", "101622.555000", "101622.558000", "101622.561000", "101622.564000", "101622.567000", "101622.570000", "101622.573000", "101622.575000", "101622.578000", "101622.581000", "101622.584000", "101622.587000", "101622.590000", "101622.593000", "101622.595000", "101622.598000", "101622.601000", "101622.604000", "101622.607000", "101622.610000", "101622.613000", "101622.615000", "101622.618000", "101702.544000", "101702.547000", "101702.550000", "101702.553000", "101702.556000", "101702.558000", "101702.561000", "101702.564000", "101702.567000", "101702.570000", "101702.573000", "101702.576000", "101702.578000", "101702.581000", "101702.584000", "101702.587000", "101702.590000", "101702.593000", "101702.595000", "101702.598000", "101702.601000", "101702.604000", "101702.607000", "101702.610000", "101702.613000", "101702.615000", "101702.618000", "101733.885000", "101733.888000", "101733.891000", "101733.894000", "101733.897000", "101733.900000", "101733.903000", "101733.906000", "101733.909000", "101733.912000", "101733.915000", "101733.918000", "101733.921000", "101733.923000", "101733.926000", "101733.929000", "101733.932000", "101733.935000", "101733.938000", "101733.941000", "101733.944000"],
      "InstanceCreationTime": ["100842.570000", "100842.573000", "100842.576000", "100842.579000", "100842.582000", "100842.585000", "100842.588000", "100842.591000", "100842.593000", "100842.596000", "100842.599000", "100842.602000", "100842.605000", "100842.608000", "100842.610000", "100842.613000", "100842.616000", "100842.619000", "100842.622000", "100842.625000", "100842.627000", "100842.630000", "100842.633000", "100842.636000", "100842.639000", "100842.642000", "100842.644000", "100842.647000", "100842.650000", "100842.653000", "100842.656000", "100842.659000", "100842.661000", "100842.664000", "100842.672000", "100842.675000", "100842.678000", "100842.681000", "100842.684000", "100902.544000", "100902.547000", "100902.550000", "100902.552000", "100902.555000", "100902.558000", "100902.561000", "100902.564000", "100902.567000", "100902.570000", "100902.573000", "100902.576000", "100902.579000", "100902.582000", "100902.608000", "100902.611000", "100902.614000", "100902.617000", "100902.619000", "100902.622000", "100922.544000", "100922.547000", "100922.550000", "100922.552000", "100922.555000", "100922.558000", "100922.561000", "100922.564000", "100922.567000", "100922.569000", "100922.572000", "100922.575000", "100922.578000", "100922.581000", "100922.583000", "100922.586000", "100922.589000", "100922.592000", "100922.595000", "100922.598000", "100922.601000", "100942.544000", "100942.547000", "100942.550000", "100942.552000", "100942.555000", "100942.558000", "100942.561000", "100942.564000", "100942.567000", "100942.569000", "100942.572000", "100942.575000", "100942.578000", "100942.581000", "100942.584000", "100942.587000", "100942.589000", "100942.592000", "100942.595000", "100942.598000", "101022.544000", "101022.547000", "101022.550000", "101022.553000", "101022.555000", "101022.558000", "101022.561000", "101022.564000", "101022.567000", "101022.570000", "101022.572000", "101022.575000", "101022.578000", "101022.581000", "101022.584000", "101022.587000", "101022.590000", "101022.592000", "101022.595000", "101022.598000", "101022.601000", "101022.604000", "101022.607000", "101022.609000", "101022.612000", "101022.615000", "101022.618000", "101022.621000", "101102.545000", "101102.548000", "101102.551000", "101102.554000", "101102.556000", "101102.559000", "101102.562000", "101102.565000", "101102.568000", "101102.571000", "101102.573000", "101102.576000", "101102.579000", "101102.582000", "101102.597000", "101102.600000", "101102.603000", "101102.605000", "101102.608000", "101102.611000", "101102.614000", "101102.617000", "101102.620000", "101102.622000", "101102.625000", "101102.628000", "101102.631000", "101142.544000", "101142.547000", "101142.550000", "101142.553000", "101142.560000", "101142.563000", "101142.566000", "101142.569000", "101142.571000", "101142.574000", "101142.577000", "101142.580000", "101142.583000", "101142.585000", "101142.588000", "101142.591000", "101142.594000", "101142.597000", "101142.600000", "101142.603000", "101142.605000", "101142.608000", "101142.611000", "101142.614000", "101142.617000", "101142.620000", "101142.622000", "101222.544000", "101222.547000", "101222.550000", "101222.553000", "101222.555000", "101222.558000", "101222.561000", "101222.564000", "101222.567000", "101222.569000", "101222.572000", "101222.575000", "101222.578000", "101222.581000", "101222.584000", "101222.587000", "101222.589000", "101222.592000", "101222.595000", "101222.598000", "101222.601000", "101222.604000", "101222.607000", "101222.609000", "101222.612000", "101222.615000", "101222.618000", "101302.544000", "101302.547000", "101302.550000", "101302.553000", "101302.556000", "101302.558000", "101302.561000", "101302.564000", "101302.567000", "101302.570000", "101302.573000", "101302.575000", "101302.578000", "101302.581000", "101302.584000", "101302.587000", "101302.590000", "101302.593000", "101302.595000", "101302.598000", "101302.601000", "101302.604000", "101302.607000", "101302.610000", "101302.612000", "101302.615000", "101302.618000", "101342.544000", "101342.547000", "101342.550000", "101342.553000", "101342.555000", "101342.558000", "101342.561000", "101342.564000", "101342.567000", "101342.570000", "101342.573000", "101342.576000", "101342.578000", "101342.581000", "101342.584000", "101342.587000", "101342.590000", "101342.593000", "101342.596000", "101342.598000", "101342.601000", "101342.604000", "101342.607000", "101342.610000", "101342.613000", "101342.616000", "101422.544000", "101422.547000", "101422.550000", "101422.553000", "101422.555000", "101422.558000", "101422.561000", "101422.564000", "101422.567000", "101422.570000", "101422.572000", "101422.575000", "101422.578000", "101422.581000", "101422.584000", "101422.587000", "101422.590000", "101422.592000", "101422.595000", "101422.598000", "101422.601000", "101422.604000", "101422.606000", "101422.609000", "101422.612000", "101422.615000", "101422.618000", "101502.544000", "101502.547000", "101502.550000", "101502.553000", "101502.556000", "101502.558000", "101502.561000", "101502.564000", "101502.567000", "101502.570000", "101502.573000", "101502.576000", "101502.578000", "101502.581000", "101502.584000", "101502.587000", "101502.590000", "101502.593000", "101502.596000", "101502.598000", "101502.601000", "101502.604000", "101502.607000", "101502.610000", "101502.613000", "101502.616000", "101502.618000", "101542.545000", "101542.548000", "101542.551000", "101542.554000", "101542.557000", "101542.559000", "101542.562000", "101542.565000", "101542.568000", "101542.571000", "101542.591000", "101542.594000", "101542.597000", "101542.599000", "101542.602000", "101542.605000", "101542.608000", "101542.611000", "101542.614000", "101542.617000", "101542.620000", "101542.622000", "101542.625000", "101542.628000", "101542.631000", "101542.634000", "101542.637000", "101622.544000", "101622.547000", "101622.550000", "101622.553000", "101622.555000", "101622.558000", "101622.561000", "101622.564000", "101622.567000", "101622.570000", "101622.573000", "101622.575000", "101622.578000", "101622.581000", "101622.584000", "101622.587000", "101622.590000", "101622.593000", "101622.595000", "101622.598000", "101622.601000", "101622.604000", "101622.607000", "101622.610000", "101622.613000", "101622.615000", "101622.618000", "101702.544000", "101702.547000", "101702.550000", "101702.553000", "101702.556000", "101702.558000", "101702.561000", "101702.564000", "101702.567000", "101702.570000", "101702.573000", "101702.576000", "101702.578000", "101702.581000", "101702.584000", "101702.587000", "101702.590000", "101702.593000", "101702.595000", "101702.598000", "101702.601000", "101702.604000", "101702.607000", "101702.610000", "101702.613000", "101702.615000", "101702.618000", "101733.885000", "101733.888000", "101733.891000", "101733.894000", "101733.897000", "101733.900000", "101733.903000", "101733.906000", "101733.909000", "101733.912000", "101733.915000", "101733.918000", "101733.921000", "101733.923000", "101733.926000", "101733.929000", "101733.932000", "101733.935000", "101733.938000", "101733.941000", "101733.944000"],
