{
  "AcquisitionMatrixPE": 104,
  "AcquisitionNumber": 1,
  "AcquisitionTime": "09:54:43.772500",
  "BandwidthPerPixelPhaseEncode": 17.17,
  "BaseResolution": 104,
  "BodyPartExamined": "BRAIN",
  "CoilString": "HC1-7;NC1_2",
  "ConsistencyInfo": "N4_VE11C_LATEST_20160120",
  "ConversionSoftware": "dcm2niix",
  "ConversionSoftwareVersion": "v1.0.20190902",
  "DerivedVendorReportedEchoSpacing": 0.000560011,
  "DeviceSerialNumber": "167006",
  "DwellTime": 2.1e-06,
  "EchoTime": 0.037,
  "EchoTrainLength": 104,
  "EffectiveEchoSpacing": 0.000560011,
  "FlipAngle": 52,
  "ImageComments": "Unaliased_MB4_PE3_LB",
  "ImageOrientationPatientDICOM": [0.995341, 0.0712218, 0.0649841, -0.0498993, 0.957268, -0.284863],
  "ImageType": [
    "ORIGINAL",
    "PRIMARY",
    "M",
    "MB",
    "ND",
    "MOSAIC"
],
  "ImagingFrequency": 123.259,
  "InPlanePhaseEncodingDirectionDICOM": "COL",
  "InstitutionAddress": "Chemin_Queen-Mary_4565_Montreal_District_CA_H3W_1W5",
  "InstitutionName": "IUGM",
  "InstitutionalDepartmentName": "Department",
  "MRAcquisitionType": "2D",
  "MagneticFieldStrength": 3,
  "Manufacturer": "Siemens",
  "ManufacturersModelName": "Prisma_fit",
  "Modality": "MR",
  "MultibandAccelerationFactor": 4,
  "PartialFourier": 1,
  "PatientPosition": "HFS",
  "PercentPhaseFOV": 100,
  "PhaseEncodingDirection": "j",
  "PhaseEncodingSteps": 104,
  "PhaseResolution": 1,
  "PixelBandwidth": 2290,
  "ProcedureStepDescription": "games_shinobi",
  "ProtocolName": "func_task-shinobi_run-1",
  "PulseSequenceDetails": "%CustomerSeq%_cmrr_mbep2d_bold",
  "ReceiveCoilActiveElements": "HC1-7;NC1,2",
  "ReceiveCoilName": "HeadNeck_64",
  "ReconMatrixPE": 104,
  "RepetitionTime": 1.49,
  "SAR": 0.0379346,
  "ScanOptions": "FS",
  "ScanningSequence": "EP",
  "SequenceName": "epfid2d1_104",
  "SequenceVariant": "SK_SS",
  "SeriesDescription": "func_task-shinobi_run-1",
  "SeriesNumber": 9,
  "ShimSetting": [644, -7211, -8822, 655, 106, -29, 91, -5],
  "SliceThickness": 2,
  "SliceTiming": [0, 0.785, 0.0975, 0.8825, 0.195, 0.98, 0.295, 1.0775, 0.3925, 1.175, 0.49, 1.275, 0.5875, 1.3725, 0.685, 0, 0.785, 0.0975, 0.8825, 0.195, 0.98, 0.295, 1.0775, 0.3925, 1.175, 0.49, 1.275, 0.5875, 1.3725, 0.685, 0, 0.785, 0.0975, 0.8825, 0.195, 0.98, 0.295, 1.0775, 0.3925, 1.175, 0.49, 1.275, 0.5875, 1.3725, 0.685, 0, 0.785, 0.0975, 0.8825, 0.195, 0.98, 0.295, 1.0775, 0.3925, 1.175, 0.49, 1.275, 0.5875, 1.3725, 0.685],
  "SoftwareVersions": "syngo_MR_E11",
  "SpacingBetweenSlices": 2,
  "StationName": "MRC35049",
  "TaskName": "shinobi",
  "TotalReadoutTime": 0.0576811,
  "TxRefAmp": 243.781,
  "WipMemBlock": "9f4f6d17-481b-4765-9764-ad3e437b539e||Sequence: R016 ve11c/master r/e634e98; Dec 19 2017 11:00:25 by eja",
  "dcmmeta_affine": [
    [-1.99068284034729, -0.09979857504367828, 0.1649913489818573, 107.27538299560547],
    [-0.14244364202022552, 1.914536952972412, -0.5605873465538025, -57.735923767089844],
    [0.12996810674667358, 0.5697267651557922, 1.9127256870269775, -57.55857467651367],
    [0.0, 0.0, 0.0, 1.0]
],
  "dcmmeta_reorient_transform": [
    [0.0, -1.0, 0.0, 103.0],
    [1.0, 0.0, 0.0, 0.0],
    [0.0, 0.0, 1.0, 0.0],
    [0.0, 0.0, 0.0, 1.0]
],
  "dcmmeta_shape": [104, 104, 60, 481],
  "dcmmeta_slice_dim": 2,
  "dcmmeta_version": 0.6,
  "global": {
    "const": {
      "AcquisitionMatrix": [104, 0, 0, 104],
      "AngioFlag": "N",
      "BitsAllocated": 16,
      "BitsStored": 16,
      "BodyPartExamined": "BRAIN",
      "Columns": 832,
      "EchoNumbers": 1,
      "EchoTime": 37.0,
      "EchoTrainLength": 104,
      "FlipAngle": 52.0,
      "HighBit": 15,
      "ImageOrientationPatient": [0.99534141110874, 0.07122182156631, 0.0649840554662, -0.049899285879, 0.95726846403356, -0.2848633866182],
      "ImagePositionPatient": [-785.27799799427, -888.20230781685, 161.19543619059],
      "ImageType": [
        "ORIGINAL",
        "PRIMARY",
        "M",
        "MB",
        "ND",
        "MOSAIC"
],
      "ImagedNucleus": "1H",
      "ImagingFrequency": 123.259286,
      "InPlanePhaseEncodingDirection": "COL",
      "MRAcquisitionType": "2D",
      "MagneticFieldStrength": 3.0,
      "Manufacturer": "SIEMENS",
      "ManufacturerModelName": "Prisma_fit",
      "Modality": "MR",
      "NumberOfAverages": 1.0,
      "NumberOfPhaseEncodingSteps": 104,
      "PercentPhaseFieldOfView": 100.0,
      "PercentSampling": 100.0,
      "PerformedProcedureStepStartTime": "093933.689000",
      "PhotometricInterpretation": "MONOCHROME2",
      "PixelBandwidth": 2290.0,
      "PixelRepresentation": 0,
      "PixelSpacing": [2.0, 2.0],
      "ProtocolName": "func_task-shinobi_run-1",
      "RepetitionTime": 1490.0,
      "Rows": 832,
      "SAR": 0.03793458882494,
      "SamplesPerPixel": 1,
      "ScanOptions": "FS",
      "ScanningSequence": "EP",
      "SequenceName": "epfid2d1_104",
      "SequenceVariant": [
        "SK",
        "SS"
],
      "SeriesDescription": "func_task-shinobi_run-1",
      "SeriesNumber": 9,
      "SeriesTime": "095600.488000",
      "SliceLocation": -30.014113953445,
      "SliceThickness": 2.0,
      "SmallestImagePixelValue": 0,
      "SoftwareVersions": "syngo MR E11",
      "SpacingBetweenSlices": 2.0000000101455,
      "SpecificCharacterSet": "ISO_IR 100",
      "StudyID": "1",
      "StudyTime": "093933.610000",
      "TransmitCoilName": "Body",
      "VariableFlipAngleFlag": "N",
      "WindowCenterWidthExplanation": "Algo1",
      "dBdt": 0.0},
    "slices": {}
  },
  "time": {
    "samples": {
      "AcquisitionNumber": [1, 2, 3, 4, 5, 6, 7, 8, 9, 10, 11, 12, 13, 14, 15, 16, 17, 18, 19, 20, 21, 22, 23, 24, 25, 26, 27, 28, 29, 30, 31, 32, 33, 34, 35, 36, 37, 38, 39, 40, 41, 42, 43, 44, 45, 46, 47, 48, 49, 50, 51, 52, 53, 54, 55, 56, 57, 58, 59, 60, 61, 62, 63, 64, 65, 66, 67, 68, 69, 70, 71, 72, 73, 74, 75, 76, 77, 78, 79, 80, 81, 82, 83, 84, 85, 86, 87, 88, 89, 90, 91, 92, 93, 94, 95, 96, 97, 98, 99, 100, 101, 102, 103, 104, 105, 106, 107, 108, 109, 110, 111, 112, 113, 114, 115, 116, 117, 118, 119, 120, 121, 122, 123, 124, 125, 126, 127, 128, 129, 130, 131, 132, 133, 134, 135, 136, 137, 138, 139, 140, 141, 142, 143, 144, 145, 146, 147, 148, 149, 150, 151, 152, 153, 154, 155, 156, 157, 158, 159, 160, 161, 162, 163, 164, 165, 166, 167, 168, 169, 170, 171, 172, 173, 174, 175, 176, 177, 178, 179, 180, 181, 182, 183, 184, 185, 186, 187, 188, 189, 190, 191, 192, 193, 194, 195, 196, 197, 198, 199, 200, 201, 202, 203, 204, 205, 206, 207, 208, 209, 210, 211, 212, 213, 214, 215, 216, 217, 218, 219, 220, 221, 222, 223, 224, 225, 226, 227, 228, 229, 230, 231, 232, 233, 234, 235, 236, 237, 238, 239, 240, 241, 242, 243, 244, 245, 246, 247, 248, 249, 250, 251, 252, 253, 254, 255, 256, 257, 258, 259, 260, 261, 262, 263, 264, 265, 266, 267, 268, 269, 270, 271, 272, 273, 274, 275, 276, 277, 278, 279, 280, 281, 282, 283, 284, 285, 286, 287, 288, 289, 290, 291, 292, 293, 294, 295, 296, 297, 298, 299, 300, 301, 302, 303, 304, 305, 306, 307, 308, 309, 310, 311, 312, 313, 314, 315, 316, 317, 318, 319, 320, 321, 322, 323, 324, 325, 326, 327, 328, 329, 330, 331, 332, 333, 334, 335, 336, 337, 338, 339, 340, 341, 342, 343, 344, 345, 346, 347, 348, 349, 350, 351, 352, 353, 354, 355, 356, 357, 358, 359, 360, 361, 362, 363, 364, 365, 366, 367, 368, 369, 370, 371, 372, 373, 374, 375, 376, 377, 378, 379, 380, 381, 382, 383, 384, 385, 386, 387, 388, 389, 390, 391, 392, 393, 394, 395, 396, 397, 398, 399, 400, 401, 402, 403, 404, 405, 406, 407, 408, 409, 410, 411, 412, 413, 414, 415, 416, 417, 418, 419, 420, 421, 422, 423, 424, 425, 426, 427, 428, 429, 430, 431, 432, 433, 434, 435, 436, 437, 438, 439, 440, 441, 442, 443, 444, 445, 446, 447, 448, 449, 450, 451, 452, 453, 454, 455, 456, 457, 458, 459, 460, 461, 462, 463, 464, 465, 466, 467, 468, 469, 470, 471, 472, 473, 474, 475, 476, 477, 478, 479, 480, 481],
      "AcquisitionTime": ["095443.772500", "095445.262500", "095446.752500", "095448.242500", "095449.732500", "095451.222500", "095452.712500", "095454.202500", "095455.692500", "095457.182500", "095458.672500", "095500.162500", "095501.652500", "095503.142500", "095504.632500", "095506.122500", "095507.612500", "095509.102500", "095510.592500", "095512.082500", "095513.572500", "095515.062500", "095516.552500", "095518.042500", "095519.532500", "095521.022500", "095522.512500", "095524.002500", "095525.492500", "095526.982500", "095528.472500", "095529.962500", "095531.452500", "095532.942500", "095534.432500", "095535.922500", "095537.412500", "095538.902500", "095540.392500", "095541.882500", "095543.372500", "095544.862500", "095546.352500", "095547.842500", "095549.332500", "095550.822500", "095552.312500", "095553.802500", "095555.292500", "095556.782500", "095558.272500", "095559.762500", "095601.252500", "095602.742500", "095604.232500", "095605.722500", "095607.212500", "095608.702500", "095610.192500", "095611.682500", "095613.172500", "095614.662500", "095616.152500", "095617.642500", "095619.132500", "095620.622500", "095622.112500", "095623.602500", "095625.092500", "095626.582500", "095628.072500", "095629.562500", "095631.052500", "095632.542500", "095634.032500", "095635.522500", "095637.012500", "095638.502500", "095639.992500", "095641.482500", "095642.972500", "095644.462500", "095645.952500", "095647.442500", "095648.932500", "095650.422500", "095651.912500", "095653.402500", "095654.892500", "095656.382500", "095657.872500", "095659.362500", "095700.852500", "095702.342500", "095703.832500", "095705.322500", "095706.812500", "095708.302500", "095709.792500", "095711.282500", "095712.772500", "095714.262500", "095715.752500", "095717.242500", "095718.732500", "095720.222500", "095721.712500", "095723.202500", "095724.692500", "095726.182500", "095727.672500", "095729.162500", "095730.652500", "095732.142500", "095733.632500", "095735.122500", "095736.612500", "095738.102500", "095739.592500", "095741.082500", "095742.572500", "095744.062500", "095745.552500", "095747.042500", "095748.532500", "095750.022500", "095751.512500", "095753.002500", "095754.492500", "095755.982500", "095757.472500", "095758.962500", "095800.452500", "095801.942500", "095803.432500", "095804.922500", "095806.412500", "095807.902500", "095809.392500", "095810.882500", "095812.372500", "095813.862500", "095815.352500", "095816.842500", "095818.332500", "095819.822500", "095821.312500", "095822.802500", "095824.292500", "095825.782500", "095827.272500", "095828.762500", "095830.252500", "095831.742500", "095833.232500", "095834.722500", "095836.212500", "095837.702500", "095839.192500", "095840.682500", "095842.172500", "095843.662500", "095845.152500", "095846.642500", "095848.132500", "095849.622500", "095851.112500", "095852.602500", "095854.092500", "095855.582500", "095857.072500", "095858.562500", "095900.052500", "095901.542500", "095903.032500", "095904.522500", "095906.012500", "095907.502500", "095908.992500", "095910.482500", "095911.972500", "095913.462500", "095914.952500", "095916.442500", "095917.932500", "095919.422500", "095920.912500", "095922.402500", "095923.892500", "095925.382500", "095926.872500", "095928.362500", "095929.852500", "095931.342500", "095932.832500", "095934.322500", "095935.812500", "095937.302500", "095938.792500", "095940.282500", "095941.772500", "095943.262500", "095944.752500", "095946.242500", "095947.732500", "095949.222500", "095950.712500", "095952.202500", "095953.692500", "095955.182500", "095956.672500", "095958.162500", "095959.652500", "100001.142500", "100002.632500", "100004.122500", "100005.612500", "100007.102500", "100008.592500", "100010.082500", "100011.572500", "100013.062500", "100014.552500", "100016.042500", "100017.532500", "100019.022500", "100020.512500", "100022.002500", "100023.492500", "100024.982500", "100026.472500", "100027.962500", "100029.452500", "100030.942500", "100032.432500", "100033.922500", "100035.412500", "100036.902500", "100038.392500", "100039.882500", "100041.372500", "100042.862500", "100044.352500", "100045.842500", "100047.332500", "100048.822500", "100050.312500", "100051.802500", "100053.292500", "100054.782500", "100056.272500", "100057.762500", "100059.252500", "100100.742500", "100102.232500", "100103.722500", "100105.212500", "100106.702500", "100108.192500", "100109.682500", "100111.172500", "100112.662500", "100114.152500", "100115.642500", "100117.132500", "100118.622500", "100120.112500", "100121.602500", "100123.092500", "100124.582500", "100126.072500", "100127.562500", "100129.052500", "100130.542500", "100132.032500", "100133.522500", "100135.012500", "100136.502500", "100137.992500", "100139.482500", "100140.972500", "100142.462500", "100143.952500", "100145.442500", "100146.932500", "100148.422500", "100149.912500", "100151.402500", "100152.892500", "100154.382500", "100155.872500", "100157.362500", "100158.852500", "100200.342500", "100201.832500", "100203.322500", "100204.812500", "100206.302500", "100207.792500", "100209.282500", "100210.772500", "100212.262500", "100213.752500", "100215.242500", "100216.732500", "100218.222500", "100219.712500", "100221.202500", "100222.692500", "100224.182500", "100225.672500", "100227.162500", "100228.652500", "100230.142500", "100231.632500", "100233.122500", "100234.612500", "100236.102500", "100237.592500", "100239.082500", "100240.572500", "100242.062500", "100243.552500", "100245.042500", "100246.532500", "100248.022500", "100249.512500", "100251.002500", "100252.492500", "100253.982500", "100255.472500", "100256.962500", "100258.452500", "100259.942500", "100301.432500", "100302.922500", "100304.412500", "100305.902500", "100307.392500", "100308.882500", "100310.372500", "100311.862500", "100313.352500", "100314.842500", "100316.332500", "100317.822500", "100319.312500", "100320.802500", "100322.292500", "100323.782500", "100325.272500", "100326.762500", "100328.252500", "100329.742500", "100331.232500", "100332.722500", "100334.212500", "100335.702500", "100337.192500", "100338.682500", "100340.172500", "100341.662500", "100343.152500", "100344.642500", "100346.132500", "100347.622500", "100349.112500", "100350.602500", "100352.092500", "100353.582500", "100355.072500", "100356.562500", "100358.052500", "100359.542500", "100401.032500", "100402.522500", "100404.012500", "100405.502500", "100406.992500", "100408.482500", "100409.972500", "100411.462500", "100412.952500", "100414.442500", "100415.932500", "100417.422500", "100418.912500", "100420.402500", "100421.892500", "100423.382500", "100424.872500", "100426.362500", "100427.852500", "100429.342500", "100430.832500", "100432.322500", "100433.812500", "100435.302500", "100436.792500", "100438.282500", "100439.772500", "100441.262500", "100442.752500", "100444.242500", "100445.732500", "100447.222500", "100448.712500", "100450.202500", "100451.692500", "100453.182500", "100454.672500", "100456.162500", "100457.652500", "100459.142500", "100500.632500", "100502.122500", "100503.612500", "100505.102500", "100506.592500", "100508.082500", "100509.572500", "100511.062500", "100512.552500", "100514.042500", "100515.532500", "100517.022500", "100518.512500", "100520.002500", "100521.492500", "100522.982500", "100524.472500", "100525.962500", "100527.452500", "100528.942500", "100530.432500", "100531.922500", "100533.412500", "100534.902500", "100536.392500", "100537.882500", "100539.372500", "100540.862500", "100542.352500", "100543.842500", "100545.332500", "100546.822500", "100548.312500", "100549.802500", "100551.292500", "100552.782500", "100554.272500", "100555.762500", "100557.252500", "100558.742500", "100600.232500", "100601.722500", "100603.212500", "100604.702500", "100606.192500", "100607.682500", "100609.172500", "100610.662500", "100612.152500", "100613.642500", "100615.132500", "100616.622500", "100618.112500", "100619.602500", "100621.092500", "100622.582500", "100624.072500", "100625.562500", "100627.052500", "100628.542500", "100630.032500", "100631.522500", "100633.012500", "100634.502500", "100635.992500", "100637.482500", "100638.972500"],
      "ContentTime": ["095600.491000", "095600.494000", "095600.497000", "095600.500000", "095600.503000", "095600.510000", "095600.513000", "095600.516000", "095600.518000", "095600.521000", "095600.524000", "095600.527000", "095600.530000", "095600.532000", "095600.535000", "095600.538000", "095600.541000", "095600.544000", "095600.546000", "095600.549000", "095600.552000", "095600.555000", "095640.455000", "095640.458000", "095640.461000", "095640.464000", "095640.468000", "095640.471000", "095640.473000", "095640.476000", "095640.480000", "095640.483000", "095640.486000", "095640.489000", "095640.492000", "095640.497000", "095640.500000", "095640.504000", "095640.507000", "095640.510000", "095640.513000", "095640.519000", "095640.522000", "095640.525000", "095640.527000", "095640.530000", "095640.533000", "095640.536000", "095640.539000", "095640.542000", "095640.545000", "095640.549000", "095640.552000", "095640.554000", "095640.557000", "095640.560000", "095640.566000", "095640.569000", "095640.571000", "095640.574000", "095640.577000", "095640.580000", "095700.455000", "095700.458000", "095700.472000", "095700.475000", "095700.477000", "095700.480000", "095700.483000", "095700.486000", "095700.489000", "095700.491000", "095700.494000", "095700.497000", "095700.500000", "095700.503000", "095700.505000", "095700.508000", "095700.521000", "095700.524000", "095700.527000", "095700.530000", "095720.455000", "095720.458000", "095720.461000", "095720.463000", "095720.466000", "095720.469000", "095720.472000", "095720.475000", "095720.478000", "095720.480000", "095720.483000", "095720.486000", "095720.489000", "095720.492000", "095720.494000", "095720.497000", "095720.500000", "095720.503000", "095720.506000", "095720.509000", "095800.455000", "095800.458000", "095800.461000", "095800.463000", "095800.466000", "095800.469000", "095800.472000", "095800.475000", "095800.478000", "095800.480000", "095800.483000", "095800.496000", "095800.499000", "095800.501000", "095800.504000", "095800.507000", "095800.510000", "095800.513000", "095800.515000", "095800.518000", "095800.521000", "095800.524000", "095800.527000", "095800.529000", "095800.532000", "095800.535000", "095800.538000", "095800.541000", "095800.544000", "095840.455000", "095840.458000", "095840.461000", "095840.464000", "095840.466000", "095840.469000", "095840.472000", "095840.475000", "095840.479000", "095840.481000", "095840.484000", "095840.487000", "095840.490000", "095840.493000", "095840.496000", "095840.499000", "095840.502000", "095840.505000", "095840.507000", "095840.510000", "095840.513000", "095840.516000", "095840.519000", "095840.521000", "095840.524000", "095840.527000", "095840.530000", "095920.455000", "095920.458000", "095920.461000", "095920.464000", "095920.466000", "095920.469000", "095920.472000", "095920.481000", "095920.484000", "095920.487000", "095920.490000", "095920.493000", "095920.496000", "095920.498000", "095920.501000", "095920.504000", "095920.507000", "095920.510000", "095920.513000", "095920.515000", "095920.518000", "095920.521000", "095920.524000", "095920.527000", "095920.530000", "095920.532000", "095920.535000", "100000.455000", "100000.458000", "100000.461000", "100000.463000", "100000.466000", "100000.469000", "100000.472000", "100000.475000", "100000.478000", "100000.480000", "100000.483000", "100000.486000", "100000.489000", "100000.492000", "100000.495000", "100000.498000", "100000.501000", "100000.503000", "100000.506000", "100000.509000", "100000.512000", "100000.515000", "100000.518000", "100000.521000", "100000.523000", "100000.526000", "100000.529000", "100020.455000", "100020.458000", "100020.461000", "100020.464000", "100020.466000", "100020.469000", "100020.472000", "100020.475000", "100020.485000", "100020.488000", "100020.491000", "100020.494000", "100020.496000", "100100.455000", "100100.458000", "100100.461000", "100100.464000", "100100.466000", "100100.469000", "100100.472000", "100100.475000", "100100.478000", "100100.481000", "100100.483000", "100100.486000", "100100.489000", "100100.492000", "100100.495000", "100100.497000", "100100.500000", "100100.503000", "100100.506000", "100100.509000", "100100.512000", "100100.514000", "100100.517000", "100100.520000", "100100.523000", "100100.526000", "100100.529000", "100140.455000", "100140.458000", "100140.461000", "100140.463000", "100140.466000", "100140.469000", "100140.472000", "100140.475000", "100140.478000", "100140.481000", "100140.483000", "100140.486000", "100140.489000", "100140.492000", "100140.495000", "100140.498000", "100140.501000", "100140.503000", "100140.506000", "100140.509000", "100140.512000", "100140.515000", "100140.518000", "100140.520000", "100140.523000", "100140.526000", "100140.529000", "100220.455000", "100220.458000", "100220.461000", "100220.464000", "100220.466000", "100220.469000", "100220.472000", "100220.475000", "100220.478000", "100220.481000", "100220.484000", "100220.486000", "100220.489000", "100220.492000", "100220.495000", "100220.498000", "100220.501000", "100220.504000", "100220.506000", "100220.509000", "100220.512000", "100220.515000", "100220.518000", "100220.521000", "100220.523000", "100220.526000", "100220.529000", "100300.455000", "100300.458000", "100300.461000", "100300.464000", "100300.467000", "100300.469000", "100300.472000", "100300.475000", "100300.478000", "100300.481000", "100300.484000", "100300.487000", "100300.489000", "100300.492000", "100300.495000", "100300.498000", "100300.501000", "100300.504000", "100300.506000", "100300.509000", "100300.512000", "100300.515000", "100300.518000", "100300.521000", "100300.523000", "100300.526000", "100300.529000", "100340.455000", "100340.458000", "100340.461000", "100340.464000", "100340.467000", "100340.469000", "100340.472000", "100340.475000", "100340.478000", "100340.481000", "100340.484000", "100340.487000", "100340.489000", "100340.492000", "100340.495000", "100340.498000", "100340.501000", "100340.503000", "100340.506000", "100340.509000", "100340.512000", "100340.515000", "100340.518000", "100340.521000", "100340.524000", "100340.527000", "100420.455000", "100420.458000", "100420.461000", "100420.464000", "100420.467000", "100420.470000", "100420.473000", "100420.475000", "100420.478000", "100420.481000", "100420.484000", "100420.487000", "100420.490000", "100420.493000", "100420.495000", "100420.498000", "100420.501000", "100420.504000", "100420.507000", "100420.510000", "100420.513000", "100420.515000", "100420.518000", "100420.521000", "100420.524000", "100420.527000", "100420.530000", "100500.455000", "100500.458000", "100500.461000", "100500.464000", "100500.467000", "100500.470000", "100500.472000", "100500.475000", "100500.487000", "100500.490000", "100500.493000", "100500.496000", "100500.499000", "100500.502000", "100500.505000", "100500.507000", "100500.510000", "100500.513000", "100500.516000", "100500.519000", "100500.522000", "100500.525000", "100500.528000", "100500.531000", "100500.534000", "100500.536000", "100500.539000", "100540.455000", "100540.458000", "100540.461000", "100540.464000", "100540.467000", "100540.470000", "100540.473000", "100540.476000", "100540.479000", "100540.482000", "100540.485000", "100540.491000", "100540.494000", "100540.497000", "100540.500000", "100540.503000", "100540.506000", "100540.508000", "100540.516000", "100540.519000", "100540.522000", "100540.525000", "100540.528000", "100540.531000", "100540.533000", "100540.536000", "100540.539000", "100620.455000", "100620.458000", "100620.461000", "100620.464000", "100620.467000", "100620.469000", "100620.472000", "100620.475000", "100620.478000", "100620.481000", "100620.484000", "100620.487000", "100620.489000", "100620.492000", "100620.495000", "100620.498000", "100620.501000", "100620.504000", "100620.507000", "100620.510000", "100620.513000", "100620.516000", "100620.518000", "100620.521000", "100620.524000", "100620.527000", "100620.530000", "100642.242000", "100642.245000", "100642.248000", "100642.251000", "100642.254000", "100642.257000", "100642.260000", "100642.262000", "100642.265000", "100642.268000", "100642.271000", "100642.274000", "100642.277000", "100642.280000"],
