{
  "AcquisitionMatrixPE": 104,
  "AcquisitionNumber": 1,
  "AcquisitionTime": "15:58:55.415000",
  "BandwidthPerPixelPhaseEncode": 17.17,
  "BaseResolution": 104,
  "BodyPartExamined": "BRAIN",
  "CoilString": "HC1-7;NC1_2",
  "ConsistencyInfo": "N4_VE11C_LATEST_20160120",
  "ConversionSoftware": "dcm2niix",
  "ConversionSoftwareVersion": "v1.0.20190902",
  "DerivedVendorReportedEchoSpacing": 0.000560011,
  "DeviceSerialNumber": "167006",
  "DwellTime": 2.1e-06,
  "EchoTime": 0.037,
  "EchoTrainLength": 104,
  "EffectiveEchoSpacing": 0.000560011,
  "FlipAngle": 52,
  "ImageComments": "Unaliased_MB4_PE3_LB",
  "ImageOrientationPatientDICOM": [0.998934, -0.0447595, 0.0113088, 0.0458854, 0.935647, -0.349942],
  "ImageType": [
    "ORIGINAL",
    "PRIMARY",
    "M",
    "MB",
    "ND",
    "MOSAIC"
],
  "ImagingFrequency": 123.259,
  "InPlanePhaseEncodingDirectionDICOM": "COL",
  "InstitutionAddress": "Chemin_Queen-Mary_4565_Montreal_District_CA_H3W_1W5",
  "InstitutionName": "IUGM",
  "InstitutionalDepartmentName": "Department",
  "MRAcquisitionType": "2D",
  "MagneticFieldStrength": 3,
  "Manufacturer": "Siemens",
  "ManufacturersModelName": "Prisma_fit",
  "Modality": "MR",
  "MultibandAccelerationFactor": 4,
  "PartialFourier": 1,
  "PatientPosition": "HFS",
  "PercentPhaseFOV": 100,
  "PhaseEncodingDirection": "j",
  "PhaseEncodingSteps": 104,
  "PhaseResolution": 1,
  "PixelBandwidth": 2290,
  "ProcedureStepDescription": "games_shinobi",
  "ProtocolName": "func_task-shinobi_run-4",
  "PulseSequenceDetails": "%CustomerSeq%_cmrr_mbep2d_bold",
  "ReceiveCoilActiveElements": "HC1-7;NC1,2",
  "ReceiveCoilName": "HeadNeck_64",
  "ReconMatrixPE": 104,
  "RepetitionTime": 1.49,
  "SAR": 0.0307612,
  "ScanOptions": "FS",
  "ScanningSequence": "EP",
  "SequenceName": "epfid2d1_104",
  "SequenceVariant": "SK_SS",
  "SeriesDescription": "func_task-shinobi_run-4",
  "SeriesNumber": 15,
  "ShimSetting": [638, -7252, -8864, 575, 12, -236, -79, 4],
  "SliceThickness": 2,
  "SliceTiming": [0, 0.785, 0.0975, 0.8825, 0.1975, 0.98, 0.295, 1.0775, 0.3925, 1.1775, 0.49, 1.275, 0.5875, 1.3725, 0.6875, 0, 0.785, 0.0975, 0.8825, 0.1975, 0.98, 0.295, 1.0775, 0.3925, 1.1775, 0.49, 1.275, 0.5875, 1.3725, 0.6875, 0, 0.785, 0.0975, 0.8825, 0.1975, 0.98, 0.295, 1.0775, 0.3925, 1.1775, 0.49, 1.275, 0.5875, 1.3725, 0.6875, 0, 0.785, 0.0975, 0.8825, 0.1975, 0.98, 0.295, 1.0775, 0.3925, 1.1775, 0.49, 1.275, 0.5875, 1.3725, 0.6875],
  "SoftwareVersions": "syngo_MR_E11",
  "SpacingBetweenSlices": 2,
  "StationName": "MRC35049",
  "TaskName": "shinobi",
  "TotalReadoutTime": 0.0576811,
  "TxRefAmp": 220.627,
  "WipMemBlock": "f0cba384-4562-4bc5-974a-a5f9c89fa48b||Sequence: R016 ve11c/master r/e634e98; Dec 19 2017 11:00:25 by eja",
  "dcmmeta_affine": [
    [-1.9978675842285156, 0.09177088737487793, -0.0101645328104496, 102.10553741455078],
    [0.08951906114816666, 1.8712934255599976, -0.7001765966415405, -68.16898345947266],
    [0.02261750027537346, 0.6998849511146545, 1.873405933380127, -77.37745666503906],
    [0.0, 0.0, 0.0, 1.0]
],
  "dcmmeta_reorient_transform": [
    [0.0, -1.0, 0.0, 103.0],
    [1.0, 0.0, 0.0, 0.0],
    [0.0, 0.0, 1.0, 0.0],
    [0.0, 0.0, 0.0, 1.0]
],
  "dcmmeta_shape": [104, 104, 60, 527],
  "dcmmeta_slice_dim": 2,
  "dcmmeta_version": 0.6,
  "global": {
    "const": {
      "AcquisitionMatrix": [104, 0, 0, 104],
      "AngioFlag": "N",
      "BitsAllocated": 16,
      "BitsStored": 16,
      "BodyPartExamined": "BRAIN",
      "Columns": 832,
      "EchoNumbers": 1,
      "EchoTime": 37.0,
      "EchoTrainLength": 104,
      "FlipAngle": 52.0,
      "HighBit": 15,
      "ImageOrientationPatient": [0.99893377986241, -0.0447595310211, 0.01130875026522, 0.0458854445254, 0.93564672038288, -0.3499424818702],
      "ImagePositionPatient": [-872.18633226619, -773.14011382378, 241.23605110281],
      "ImageType": [
        "ORIGINAL",
        "PRIMARY",
        "M",
        "MB",
        "ND",
        "MOSAIC"
],
      "ImagedNucleus": "1H",
      "ImagingFrequency": 123.259005,
      "InPlanePhaseEncodingDirection": "COL",
      "MRAcquisitionType": "2D",
      "MagneticFieldStrength": 3.0,
      "Manufacturer": "SIEMENS",
      "ManufacturerModelName": "Prisma_fit",
      "Modality": "MR",
      "NumberOfAverages": 1.0,
      "NumberOfPhaseEncodingSteps": 104,
      "PercentPhaseFieldOfView": 100.0,
      "PercentSampling": 100.0,
      "PerformedProcedureStepStartTime": "150809.261000",
      "PhotometricInterpretation": "MONOCHROME2",
      "PixelBandwidth": 2290.0,
      "PixelRepresentation": 0,
      "PixelSpacing": [2.0, 2.0],
      "ProtocolName": "func_task-shinobi_run-4",
      "RepetitionTime": 1490.0,
      "Rows": 832,
      "SAR": 0.03076123332891,
      "SamplesPerPixel": 1,
      "ScanOptions": "FS",
      "ScanningSequence": "EP",
      "SequenceName": "epfid2d1_104",
      "SequenceVariant": [
        "SK",
        "SS"
],
      "SeriesDescription": "func_task-shinobi_run-4",
      "SeriesNumber": 15,
      "SeriesTime": "160016.191000",
      "SliceLocation": -49.133455637576,
      "SliceThickness": 2.0,
      "SmallestImagePixelValue": 0,
      "SoftwareVersions": "syngo MR E11",
      "SpacingBetweenSlices": 2.0000000591166,
      "SpecificCharacterSet": "ISO_IR 100",
      "StudyID": "1",
      "StudyTime": "150809.193000",
      "TransmitCoilName": "Body",
      "VariableFlipAngleFlag": "N",
      "WindowCenterWidthExplanation": "Algo1",
      "dBdt": 0.0},
    "slices": {}
  },
  "time": {
    "samples": {
      "AcquisitionNumber": [1, 2, 3, 4, 5, 6, 7, 8, 9, 10, 11, 12, 13, 14, 15, 16, 17, 18, 19, 20, 21, 22, 23, 24, 25, 26, 27, 28, 29, 30, 31, 32, 33, 34, 35, 36, 37, 38, 39, 40, 41, 42, 43, 44, 45, 46, 47, 48, 49, 50, 51, 52, 53, 54, 55, 56, 57, 58, 59, 60, 61, 62, 63, 64, 65, 66, 67, 68, 69, 70, 71, 72, 73, 74, 75, 76, 77, 78, 79, 80, 81, 82, 83, 84, 85, 86, 87, 88, 89, 90, 91, 92, 93, 94, 95, 96, 97, 98, 99, 100, 101, 102, 103, 104, 105, 106, 107, 108, 109, 110, 111, 112, 113, 114, 115, 116, 117, 118, 119, 120, 121, 122, 123, 124, 125, 126, 127, 128, 129, 130, 131, 132, 133, 134, 135, 136, 137, 138, 139, 140, 141, 142, 143, 144, 145, 146, 147, 148, 149, 150, 151, 152, 153, 154, 155, 156, 157, 158, 159, 160, 161, 162, 163, 164, 165, 166, 167, 168, 169, 170, 171, 172, 173, 174, 175, 176, 177, 178, 179, 180, 181, 182, 183, 184, 185, 186, 187, 188, 189, 190, 191, 192, 193, 194, 195, 196, 197, 198, 199, 200, 201, 202, 203, 204, 205, 206, 207, 208, 209, 210, 211, 212, 213, 214, 215, 216, 217, 218, 219, 220, 221, 222, 223, 224, 225, 226, 227, 228, 229, 230, 231, 232, 233, 234, 235, 236, 237, 238, 239, 240, 241, 242, 243, 244, 245, 246, 247, 248, 249, 250, 251, 252, 253, 254, 255, 256, 257, 258, 259, 260, 261, 262, 263, 264, 265, 266, 267, 268, 269, 270, 271, 272, 273, 274, 275, 276, 277, 278, 279, 280, 281, 282, 283, 284, 285, 286, 287, 288, 289, 290, 291, 292, 293, 294, 295, 296, 297, 298, 299, 300, 301, 302, 303, 304, 305, 306, 307, 308, 309, 310, 311, 312, 313, 314, 315, 316, 317, 318, 319, 320, 321, 322, 323, 324, 325, 326, 327, 328, 329, 330, 331, 332, 333, 334, 335, 336, 337, 338, 339, 340, 341, 342, 343, 344, 345, 346, 347, 348, 349, 350, 351, 352, 353, 354, 355, 356, 357, 358, 359, 360, 361, 362, 363, 364, 365, 366, 367, 368, 369, 370, 371, 372, 373, 374, 375, 376, 377, 378, 379, 380, 381, 382, 383, 384, 385, 386, 387, 388, 389, 390, 391, 392, 393, 394, 395, 396, 397, 398, 399, 400, 401, 402, 403, 404, 405, 406, 407, 408, 409, 410, 411, 412, 413, 414, 415, 416, 417, 418, 419, 420, 421, 422, 423, 424, 425, 426, 427, 428, 429, 430, 431, 432, 433, 434, 435, 436, 437, 438, 439, 440, 441, 442, 443, 444, 445, 446, 447, 448, 449, 450, 451, 452, 453, 454, 455, 456, 457, 458, 459, 460, 461, 462, 463, 464, 465, 466, 467, 468, 469, 470, 471, 472, 473, 474, 475, 476, 477, 478, 479, 480, 481, 482, 483, 484, 485, 486, 487, 488, 489, 490, 491, 492, 493, 494, 495, 496, 497, 498, 499, 500, 501, 502, 503, 504, 505, 506, 507, 508, 509, 510, 511, 512, 513, 514, 515, 516, 517, 518, 519, 520, 521, 522, 523, 524, 525, 526, 527],
      "AcquisitionTime": ["155855.415000", "155856.905000", "155858.395000", "155859.885000", "155901.375000", "155902.865000", "155904.355000", "155905.845000", "155907.335000", "155908.825000", "155910.315000", "155911.805000", "155913.295000", "155914.785000", "155916.275000", "155917.765000", "155919.255000", "155920.745000", "155922.235000", "155923.725000", "155925.215000", "155926.705000", "155928.195000", "155929.685000", "155931.175000", "155932.665000", "155934.155000", "155935.645000", "155937.135000", "155938.625000", "155940.115000", "155941.605000", "155943.095000", "155944.585000", "155946.075000", "155947.565000", "155949.055000", "155950.545000", "155952.035000", "155953.525000", "155955.015000", "155956.505000", "155957.995000", "155959.485000", "160000.975000", "160002.465000", "160003.955000", "160005.445000", "160006.935000", "160008.425000", "160009.915000", "160011.405000", "160012.895000", "160014.385000", "160015.875000", "160017.365000", "160018.855000", "160020.345000", "160021.835000", "160023.325000", "160024.815000", "160026.305000", "160027.795000", "160029.285000", "160030.775000", "160032.265000", "160033.755000", "160035.245000", "160036.735000", "160038.225000", "160039.715000", "160041.205000", "160042.695000", "160044.185000", "160045.675000", "160047.165000", "160048.655000", "160050.145000", "160051.635000", "160053.125000", "160054.615000", "160056.105000", "160057.595000", "160059.085000", "160100.575000", "160102.065000", "160103.555000", "160105.045000", "160106.535000", "160108.025000", "160109.515000", "160111.005000", "160112.495000", "160113.985000", "160115.475000", "160116.965000", "160118.455000", "160119.945000", "160121.435000", "160122.925000", "160124.415000", "160125.905000", "160127.395000", "160128.885000", "160130.375000", "160131.865000", "160133.355000", "160134.845000", "160136.335000", "160137.825000", "160139.315000", "160140.805000", "160142.295000", "160143.785000", "160145.275000", "160146.765000", "160148.255000", "160149.745000", "160151.235000", "160152.725000", "160154.215000", "160155.705000", "160157.195000", "160158.685000", "160200.175000", "160201.665000", "160203.155000", "160204.645000", "160206.135000", "160207.625000", "160209.115000", "160210.605000", "160212.095000", "160213.585000", "160215.075000", "160216.565000", "160218.055000", "160219.545000", "160221.035000", "160222.525000", "160224.015000", "160225.505000", "160226.995000", "160228.485000", "160229.975000", "160231.465000", "160232.955000", "160234.445000", "160235.935000", "160237.425000", "160238.915000", "160240.405000", "160241.895000", "160243.385000", "160244.875000", "160246.365000", "160247.855000", "160249.345000", "160250.835000", "160252.325000", "160253.815000", "160255.305000", "160256.795000", "160258.285000", "160259.775000", "160301.265000", "160302.755000", "160304.245000", "160305.735000", "160307.225000", "160308.715000", "160310.205000", "160311.695000", "160313.185000", "160314.675000", "160316.165000", "160317.655000", "160319.145000", "160320.635000", "160322.125000", "160323.615000", "160325.105000", "160326.595000", "160328.085000", "160329.575000", "160331.065000", "160332.555000", "160334.045000", "160335.535000", "160337.025000", "160338.515000", "160340.005000", "160341.495000", "160342.985000", "160344.475000", "160345.965000", "160347.455000", "160348.945000", "160350.435000", "160351.925000", "160353.415000", "160354.905000", "160356.395000", "160357.885000", "160359.375000", "160400.865000", "160402.355000", "160403.845000", "160405.335000", "160406.825000", "160408.315000", "160409.805000", "160411.295000", "160412.785000", "160414.275000", "160415.765000", "160417.255000", "160418.745000", "160420.235000", "160421.725000", "160423.215000", "160424.705000", "160426.195000", "160427.685000", "160429.175000", "160430.665000", "160432.155000", "160433.645000", "160435.135000", "160436.625000", "160438.115000", "160439.605000", "160441.095000", "160442.585000", "160444.075000", "160445.565000", "160447.055000", "160448.545000", "160450.035000", "160451.525000", "160453.015000", "160454.505000", "160455.995000", "160457.485000", "160458.975000", "160500.465000", "160501.955000", "160503.445000", "160504.935000", "160506.425000", "160507.915000", "160509.405000", "160510.895000", "160512.385000", "160513.875000", "160515.365000", "160516.855000", "160518.345000", "160519.835000", "160521.325000", "160522.815000", "160524.305000", "160525.795000", "160527.285000", "160528.775000", "160530.265000", "160531.755000", "160533.245000", "160534.735000", "160536.225000", "160537.715000", "160539.205000", "160540.695000", "160542.185000", "160543.675000", "160545.165000", "160546.655000", "160548.145000", "160549.635000", "160551.125000", "160552.615000", "160554.105000", "160555.595000", "160557.085000", "160558.575000", "160600.065000", "160601.555000", "160603.045000", "160604.535000", "160606.025000", "160607.515000", "160609.005000", "160610.495000", "160611.985000", "160613.475000", "160614.965000", "160616.455000", "160617.945000", "160619.435000", "160620.925000", "160622.415000", "160623.905000", "160625.395000", "160626.885000", "160628.375000", "160629.865000", "160631.355000", "160632.845000", "160634.335000", "160635.825000", "160637.315000", "160638.805000", "160640.295000", "160641.785000", "160643.275000", "160644.765000", "160646.255000", "160647.745000", "160649.235000", "160650.725000", "160652.215000", "160653.705000", "160655.195000", "160656.685000", "160658.175000", "160659.665000", "160701.155000", "160702.645000", "160704.135000", "160705.625000", "160707.115000", "160708.605000", "160710.095000", "160711.585000", "160713.075000", "160714.565000", "160716.055000", "160717.545000", "160719.035000", "160720.525000", "160722.015000", "160723.505000", "160724.995000", "160726.485000", "160727.975000", "160729.465000", "160730.955000", "160732.445000", "160733.935000", "160735.425000", "160736.915000", "160738.405000", "160739.895000", "160741.385000", "160742.875000", "160744.365000", "160745.855000", "160747.345000", "160748.835000", "160750.325000", "160751.815000", "160753.305000", "160754.795000", "160756.285000", "160757.775000", "160759.265000", "160800.755000", "160802.245000", "160803.735000", "160805.225000", "160806.715000", "160808.205000", "160809.695000", "160811.185000", "160812.675000", "160814.165000", "160815.655000", "160817.145000", "160818.635000", "160820.125000", "160821.615000", "160823.105000", "160824.595000", "160826.085000", "160827.575000", "160829.065000", "160830.555000", "160832.045000", "160833.535000", "160835.025000", "160836.515000", "160838.005000", "160839.495000", "160840.985000", "160842.475000", "160843.965000", "160845.455000", "160846.945000", "160848.435000", "160849.925000", "160851.415000", "160852.905000", "160854.395000", "160855.885000", "160857.375000", "160858.865000", "160900.355000", "160901.845000", "160903.335000", "160904.825000", "160906.315000", "160907.805000", "160909.295000", "160910.785000", "160912.275000", "160913.765000", "160915.255000", "160916.745000", "160918.235000", "160919.725000", "160921.215000", "160922.705000", "160924.195000", "160925.685000", "160927.175000", "160928.665000", "160930.155000", "160931.645000", "160933.135000", "160934.625000", "160936.115000", "160937.605000", "160939.095000", "160940.585000", "160942.075000", "160943.565000", "160945.055000", "160946.545000", "160948.035000", "160949.525000", "160951.015000", "160952.505000", "160953.995000", "160955.485000", "160956.975000", "160958.465000", "160959.955000", "161001.445000", "161002.935000", "161004.425000", "161005.915000", "161007.405000", "161008.895000", "161010.385000", "161011.875000", "161013.365000", "161014.855000", "161016.345000", "161017.835000", "161019.325000", "161020.815000", "161022.305000", "161023.795000", "161025.285000", "161026.775000", "161028.265000", "161029.755000", "161031.245000", "161032.735000", "161034.225000", "161035.715000", "161037.205000", "161038.695000", "161040.185000", "161041.675000", "161043.165000", "161044.655000", "161046.145000", "161047.635000", "161049.125000", "161050.615000", "161052.105000", "161053.595000", "161055.085000", "161056.575000", "161058.065000", "161059.555000", "161101.045000", "161102.535000", "161104.025000", "161105.515000", "161107.005000", "161108.495000", "161109.985000", "161111.475000", "161112.965000", "161114.455000", "161115.945000", "161117.435000", "161118.925000", "161120.415000", "161121.905000", "161123.395000", "161124.885000", "161126.375000", "161127.865000", "161129.355000", "161130.845000", "161132.335000", "161133.825000", "161135.315000", "161136.805000", "161138.295000", "161139.785000", "161141.275000", "161142.765000", "161144.255000", "161145.745000", "161147.235000", "161148.725000", "161150.215000", "161151.705000", "161153.195000", "161154.685000", "161156.175000", "161157.665000", "161159.155000"],
      "ContentTime": ["160016.193000", "160016.197000", "160016.204000", "160016.209000", "160016.212000", "160016.215000", "160016.218000", "160016.221000", "160016.224000", "160016.227000", "160016.230000", "160016.233000", "160016.236000", "160016.239000", "160016.244000", "160016.247000", "160016.250000", "160016.253000", "160016.256000", "160016.258000", "160016.261000", "160016.264000", "160016.267000", "160016.270000", "160016.273000", "160016.276000", "160016.279000", "160016.282000", "160036.164000", "160036.167000", "160036.170000", "160036.173000", "160036.176000", "160036.179000", "160036.182000", "160036.184000", "160036.187000", "160036.190000", "160036.195000", "160036.198000", "160036.201000", "160036.204000", "160036.206000", "160036.209000", "160036.212000", "160036.215000", "160036.218000", "160036.221000", "160056.164000", "160056.167000", "160056.170000", "160056.173000", "160056.176000", "160056.179000", "160056.182000", "160056.184000", "160056.187000", "160056.190000", "160056.196000", "160056.199000", "160056.202000", "160056.205000", "160056.208000", "160056.211000", "160056.214000", "160056.217000", "160056.220000", "160056.222000", "160116.165000", "160116.168000", "160116.171000", "160116.174000", "160116.177000", "160116.180000", "160116.182000", "160116.185000", "160116.188000", "160116.192000", "160116.195000", "160116.198000", "160116.201000", "160116.204000", "160116.207000", "160116.210000", "160116.213000", "160116.215000", "160116.218000", "160116.221000", "160156.164000", "160156.167000", "160156.170000", "160156.173000", "160156.176000", "160156.179000", "160156.182000", "160156.185000", "160156.188000", "160156.190000", "160156.193000", "160156.196000", "160156.199000", "160156.202000", "160156.205000", "160156.208000", "160156.211000", "160156.214000", "160156.217000", "160156.219000", "160156.222000", "160156.225000", "160156.228000", "160156.231000", "160156.234000", "160156.237000", "160156.240000", "160156.243000", "160156.246000", "160156.249000", "160156.252000", "160156.255000", "160236.164000", "160236.167000", "160236.170000", "160236.173000", "160236.176000", "160236.179000", "160236.182000", "160236.185000", "160236.188000", "160236.191000", "160236.194000", "160236.197000", "160236.200000", "160236.202000", "160236.205000", "160236.208000", "160236.211000", "160236.214000", "160236.217000", "160236.220000", "160236.223000", "160236.226000", "160236.229000", "160236.232000", "160236.235000", "160236.238000", "160236.241000", "160316.164000", "160316.167000", "160316.170000", "160316.173000", "160316.176000", "160316.179000", "160316.182000", "160316.185000", "160316.188000", "160316.191000", "160316.194000", "160316.197000", "160316.199000", "160316.202000", "160316.205000", "160316.208000", "160316.211000", "160316.214000", "160316.217000", "160316.220000", "160316.223000", "160316.226000", "160316.229000", "160316.232000", "160316.234000", "160316.238000", "160316.240000", "160356.164000", "160356.167000", "160356.170000", "160356.173000", "160356.176000", "160356.179000", "160356.182000", "160356.185000", "160356.188000", "160356.191000", "160356.194000", "160356.196000", "160356.199000", "160356.202000", "160356.205000", "160356.208000", "160356.211000", "160356.214000", "160356.217000", "160356.220000", "160356.223000", "160356.226000", "160356.229000", "160356.232000", "160356.235000", "160356.238000", "160356.241000", "160436.164000", "160436.167000", "160436.171000", "160436.174000", "160436.177000", "160436.180000", "160436.183000", "160436.186000", "160436.189000", "160436.192000", "160436.195000", "160436.198000", "160436.201000", "160436.204000", "160436.207000", "160436.210000", "160436.213000", "160436.215000", "160436.218000", "160436.221000", "160436.224000", "160436.227000", "160436.230000", "160436.233000", "160436.236000", "160436.239000", "160436.242000", "160516.164000", "160516.167000", "160516.170000", "160516.173000", "160516.176000", "160516.179000", "160516.182000", "160516.185000", "160516.188000", "160516.191000", "160516.202000", "160516.205000", "160516.209000", "160516.212000", "160516.215000", "160516.219000", "160516.222000", "160516.224000", "160516.228000", "160516.231000", "160516.234000", "160516.236000", "160516.239000", "160516.242000", "160516.245000", "160516.248000", "160556.165000", "160556.168000", "160556.171000", "160556.174000", "160556.177000", "160556.180000", "160556.183000", "160556.186000", "160556.189000", "160556.191000", "160556.194000", "160556.197000", "160556.201000", "160556.204000", "160556.207000", "160556.209000", "160556.212000", "160556.215000", "160556.218000", "160556.221000", "160556.224000", "160556.227000", "160556.230000", "160556.233000", "160556.241000", "160556.244000", "160556.247000", "160636.164000", "160636.167000", "160636.170000", "160636.173000", "160636.176000", "160636.179000", "160636.182000", "160636.185000", "160636.188000", "160636.191000", "160636.194000", "160636.197000", "160636.199000", "160636.202000", "160636.205000", "160636.208000", "160636.211000", "160636.214000", "160636.217000", "160636.220000", "160636.223000", "160636.226000", "160636.229000", "160636.232000", "160636.235000", "160636.237000", "160636.240000", "160656.164000", "160656.167000", "160656.170000", "160656.174000", "160656.177000", "160656.180000", "160656.183000", "160656.186000", "160656.190000", "160656.193000", "160656.196000", "160656.199000", "160656.202000", "160656.205000", "160736.164000", "160736.167000", "160736.174000", "160736.177000", "160736.180000", "160736.183000", "160736.186000", "160736.190000", "160736.192000", "160736.195000", "160736.198000", "160736.201000", "160736.204000", "160736.207000", "160736.210000", "160736.213000", "160736.216000", "160736.219000", "160736.222000", "160736.225000", "160736.228000", "160736.230000", "160736.234000", "160736.236000", "160736.239000", "160736.242000", "160816.165000", "160816.168000", "160816.171000", "160816.174000", "160816.177000", "160816.180000", "160816.183000", "160816.186000", "160816.189000", "160816.192000", "160816.195000", "160816.198000", "160816.201000", "160816.204000", "160816.207000", "160816.210000", "160816.213000", "160816.216000", "160816.219000", "160816.222000", "160816.225000", "160816.228000", "160816.231000", "160816.234000", "160816.237000", "160816.239000", "160816.242000", "160856.164000", "160856.173000", "160856.176000", "160856.180000", "160856.183000", "160856.186000", "160856.190000", "160856.193000", "160856.196000", "160856.199000", "160856.202000", "160856.205000", "160856.208000", "160856.211000", "160856.214000", "160856.217000", "160856.220000", "160856.223000", "160856.226000", "160856.229000", "160856.232000", "160856.235000", "160856.238000", "160856.241000", "160856.243000", "160856.247000", "160856.250000", "160936.164000", "160936.167000", "160936.170000", "160936.173000", "160936.183000", "160936.186000", "160936.188000", "160936.191000", "160936.195000", "160936.197000", "160936.200000", "160936.204000", "160936.207000", "160936.210000", "160936.212000", "160936.215000", "160936.218000", "160936.221000", "160936.224000", "160936.227000", "160936.230000", "160936.233000", "160936.236000", "160936.239000", "160936.242000", "160936.245000", "160936.247000", "161016.164000", "161016.167000", "161016.170000", "161016.173000", "161016.176000", "161016.179000", "161016.182000", "161016.185000", "161016.188000", "161016.191000", "161016.194000", "161016.197000", "161016.200000", "161016.202000", "161016.205000", "161016.209000", "161016.211000", "161016.214000", "161016.217000", "161016.220000", "161016.223000", "161016.226000", "161016.229000", "161016.232000", "161016.235000", "161016.238000", "161016.241000", "161056.164000", "161056.177000", "161056.181000", "161056.183000", "161056.187000", "161056.190000", "161056.193000", "161056.196000", "161056.198000", "161056.201000", "161056.204000", "161056.207000", "161056.210000", "161056.213000", "161056.216000", "161056.219000", "161056.222000", "161056.225000", "161056.228000", "161056.231000", "161056.234000", "161056.237000", "161056.240000", "161056.243000", "161056.246000", "161056.249000", "161056.252000", "161136.164000", "161136.168000", "161136.171000", "161136.174000", "161136.177000", "161136.180000", "161136.183000", "161136.186000", "161136.189000", "161136.192000", "161136.195000", "161136.198000", "161136.201000", "161136.204000", "161136.207000", "161136.210000", "161136.213000", "161136.216000", "161136.219000", "161136.222000", "161136.224000", "161136.228000", "161136.231000", "161136.233000", "161136.236000", "161136.239000", "161201.706000", "161201.710000", "161201.712000", "161201.715000", "161201.718000", "161201.721000", "161201.724000", "161201.727000", "161201.730000", "161201.733000", "161201.736000", "161201.739000", "161201.742000", "161201.745000", "161201.748000", "161201.751000", "161201.754000", "161201.757000"],
