{
  "AcquisitionMatrixPE": 104,
  "AcquisitionNumber": 1,
  "AcquisitionTime": "15:45:59.575000",
  "BandwidthPerPixelPhaseEncode": 17.17,
  "BaseResolution": 104,
  "BodyPartExamined": "BRAIN",
  "CoilString": "HC1-7;NC1_2",
  "ConsistencyInfo": "N4_VE11C_LATEST_20160120",
  "ConversionSoftware": "dcm2niix",
  "ConversionSoftwareVersion": "v1.0.20190902",
  "DerivedVendorReportedEchoSpacing": 0.000560011,
  "DeviceSerialNumber": "167006",
  "DwellTime": 2.1e-06,
  "EchoTime": 0.037,
  "EchoTrainLength": 104,
  "EffectiveEchoSpacing": 0.000560011,
  "FlipAngle": 52,
  "ImageComments": "Unaliased_MB4_PE3_LB",
  "ImageOrientationPatientDICOM": [0.998934, -0.0447595, 0.0113088, 0.0458854, 0.935647, -0.349942],
  "ImageType": [
    "ORIGINAL",
    "PRIMARY",
    "M",
    "MB",
    "ND",
    "MOSAIC"
],
  "ImagingFrequency": 123.259,
  "InPlanePhaseEncodingDirectionDICOM": "COL",
  "InstitutionAddress": "Chemin_Queen-Mary_4565_Montreal_District_CA_H3W_1W5",
  "InstitutionName": "IUGM",
  "InstitutionalDepartmentName": "Department",
  "MRAcquisitionType": "2D",
  "MagneticFieldStrength": 3,
  "Manufacturer": "Siemens",
  "ManufacturersModelName": "Prisma_fit",
  "Modality": "MR",
  "MultibandAccelerationFactor": 4,
  "PartialFourier": 1,
  "PatientPosition": "HFS",
  "PercentPhaseFOV": 100,
  "PhaseEncodingDirection": "j",
  "PhaseEncodingSteps": 104,
  "PhaseResolution": 1,
  "PixelBandwidth": 2290,
  "ProcedureStepDescription": "games_shinobi",
  "ProtocolName": "func_task-shinobi_run-3",
  "PulseSequenceDetails": "%CustomerSeq%_cmrr_mbep2d_bold",
  "ReceiveCoilActiveElements": "HC1-7;NC1,2",
  "ReceiveCoilName": "HeadNeck_64",
  "ReconMatrixPE": 104,
  "RepetitionTime": 1.49,
  "SAR": 0.0307612,
  "ScanOptions": "FS",
  "ScanningSequence": "EP",
  "SequenceName": "epfid2d1_104",
  "SequenceVariant": "SK_SS",
  "SeriesDescription": "func_task-shinobi_run-3",
  "SeriesNumber": 13,
  "ShimSetting": [638, -7252, -8864, 575, 12, -236, -79, 4],
  "SliceThickness": 2,
  "SliceTiming": [0, 0.785, 0.0975, 0.8825, 0.1975, 0.98, 0.295, 1.0775, 0.3925, 1.175, 0.49, 1.275, 0.5875, 1.3725, 0.685, 0, 0.785, 0.0975, 0.8825, 0.1975, 0.98, 0.295, 1.0775, 0.3925, 1.175, 0.49, 1.275, 0.5875, 1.3725, 0.685, 0, 0.785, 0.0975, 0.8825, 0.1975, 0.98, 0.295, 1.0775, 0.3925, 1.175, 0.49, 1.275, 0.5875, 1.3725, 0.685, 0, 0.785, 0.0975, 0.8825, 0.1975, 0.98, 0.295, 1.0775, 0.3925, 1.175, 0.49, 1.275, 0.5875, 1.3725, 0.685],
  "SoftwareVersions": "syngo_MR_E11",
  "SpacingBetweenSlices": 2,
  "StationName": "MRC35049",
  "TaskName": "shinobi",
  "TotalReadoutTime": 0.0576811,
  "TxRefAmp": 220.627,
  "WipMemBlock": "88b2e85f-d9c8-4bd8-a14c-0a57105e4866||Sequence: R016 ve11c/master r/e634e98; Dec 19 2017 11:00:25 by eja",
  "dcmmeta_affine": [
    [-1.9978675842285156, 0.09177088737487793, -0.0101645328104496, 102.10553741455078],
    [0.08951906114816666, 1.8712934255599976, -0.7001765966415405, -68.16898345947266],
    [0.02261750027537346, 0.6998849511146545, 1.873405933380127, -77.37745666503906],
    [0.0, 0.0, 0.0, 1.0]
],
  "dcmmeta_reorient_transform": [
    [0.0, -1.0, 0.0, 103.0],
    [1.0, 0.0, 0.0, 0.0],
    [0.0, 0.0, 1.0, 0.0],
    [0.0, 0.0, 0.0, 1.0]
],
  "dcmmeta_shape": [104, 104, 60, 499],
  "dcmmeta_slice_dim": 2,
  "dcmmeta_version": 0.6,
  "global": {
    "const": {
      "AcquisitionMatrix": [104, 0, 0, 104],
      "AngioFlag": "N",
      "BitsAllocated": 16,
      "BitsStored": 16,
      "BodyPartExamined": "BRAIN",
      "Columns": 832,
      "EchoNumbers": 1,
      "EchoTime": 37.0,
      "EchoTrainLength": 104,
      "FlipAngle": 52.0,
      "HighBit": 15,
      "ImageOrientationPatient": [0.99893377986241, -0.0447595310211, 0.01130875026522, 0.0458854445254, 0.93564672038288, -0.3499424818702],
      "ImagePositionPatient": [-872.18633226619, -773.14011382378, 241.23605110281],
      "ImageType": [
        "ORIGINAL",
        "PRIMARY",
        "M",
        "MB",
        "ND",
        "MOSAIC"
],
      "ImagedNucleus": "1H",
      "ImagingFrequency": 123.258999,
      "InPlanePhaseEncodingDirection": "COL",
      "MRAcquisitionType": "2D",
      "MagneticFieldStrength": 3.0,
      "Manufacturer": "SIEMENS",
      "ManufacturerModelName": "Prisma_fit",
      "Modality": "MR",
      "NumberOfAverages": 1.0,
      "NumberOfPhaseEncodingSteps": 104,
      "PercentPhaseFieldOfView": 100.0,
      "PercentSampling": 100.0,
      "PerformedProcedureStepStartTime": "150809.261000",
      "PhotometricInterpretation": "MONOCHROME2",
      "PixelBandwidth": 2290.0,
      "PixelRepresentation": 0,
      "PixelSpacing": [2.0, 2.0],
      "ProtocolName": "func_task-shinobi_run-3",
      "RepetitionTime": 1490.0,
      "Rows": 832,
      "SAR": 0.03076123332891,
      "SamplesPerPixel": 1,
      "ScanOptions": "FS",
      "ScanningSequence": "EP",
      "SequenceName": "epfid2d1_104",
      "SequenceVariant": [
        "SK",
        "SS"
],
      "SeriesDescription": "func_task-shinobi_run-3",
      "SeriesNumber": 13,
      "SeriesTime": "154658.395000",
      "SliceLocation": -49.133455637576,
      "SliceThickness": 2.0,
      "SmallestImagePixelValue": 0,
      "SoftwareVersions": "syngo MR E11",
      "SpacingBetweenSlices": 2.0000000591166,
      "SpecificCharacterSet": "ISO_IR 100",
      "StudyID": "1",
      "StudyTime": "150809.193000",
      "TransmitCoilName": "Body",
      "VariableFlipAngleFlag": "N",
      "WindowCenterWidthExplanation": "Algo1",
      "dBdt": 0.0},
    "slices": {}
  },
  "time": {
    "samples": {
      "AcquisitionNumber": [1, 2, 3, 4, 5, 6, 7, 8, 9, 10, 11, 12, 13, 14, 15, 16, 17, 18, 19, 20, 21, 22, 23, 24, 25, 26, 27, 28, 29, 30, 31, 32, 33, 34, 35, 36, 37, 38, 39, 40, 41, 42, 43, 44, 45, 46, 47, 48, 49, 50, 51, 52, 53, 54, 55, 56, 57, 58, 59, 60, 61, 62, 63, 64, 65, 66, 67, 68, 69, 70, 71, 72, 73, 74, 75, 76, 77, 78, 79, 80, 81, 82, 83, 84, 85, 86, 87, 88, 89, 90, 91, 92, 93, 94, 95, 96, 97, 98, 99, 100, 101, 102, 103, 104, 105, 106, 107, 108, 109, 110, 111, 112, 113, 114, 115, 116, 117, 118, 119, 120, 121, 122, 123, 124, 125, 126, 127, 128, 129, 130, 131, 132, 133, 134, 135, 136, 137, 138, 139, 140, 141, 142, 143, 144, 145, 146, 147, 148, 149, 150, 151, 152, 153, 154, 155, 156, 157, 158, 159, 160, 161, 162, 163, 164, 165, 166, 167, 168, 169, 170, 171, 172, 173, 174, 175, 176, 177, 178, 179, 180, 181, 182, 183, 184, 185, 186, 187, 188, 189, 190, 191, 192, 193, 194, 195, 196, 197, 198, 199, 200, 201, 202, 203, 204, 205, 206, 207, 208, 209, 210, 211, 212, 213, 214, 215, 216, 217, 218, 219, 220, 221, 222, 223, 224, 225, 226, 227, 228, 229, 230, 231, 232, 233, 234, 235, 236, 237, 238, 239, 240, 241, 242, 243, 244, 245, 246, 247, 248, 249, 250, 251, 252, 253, 254, 255, 256, 257, 258, 259, 260, 261, 262, 263, 264, 265, 266, 267, 268, 269, 270, 271, 272, 273, 274, 275, 276, 277, 278, 279, 280, 281, 282, 283, 284, 285, 286, 287, 288, 289, 290, 291, 292, 293, 294, 295, 296, 297, 298, 299, 300, 301, 302, 303, 304, 305, 306, 307, 308, 309, 310, 311, 312, 313, 314, 315, 316, 317, 318, 319, 320, 321, 322, 323, 324, 325, 326, 327, 328, 329, 330, 331, 332, 333, 334, 335, 336, 337, 338, 339, 340, 341, 342, 343, 344, 345, 346, 347, 348, 349, 350, 351, 352, 353, 354, 355, 356, 357, 358, 359, 360, 361, 362, 363, 364, 365, 366, 367, 368, 369, 370, 371, 372, 373, 374, 375, 376, 377, 378, 379, 380, 381, 382, 383, 384, 385, 386, 387, 388, 389, 390, 391, 392, 393, 394, 395, 396, 397, 398, 399, 400, 401, 402, 403, 404, 405, 406, 407, 408, 409, 410, 411, 412, 413, 414, 415, 416, 417, 418, 419, 420, 421, 422, 423, 424, 425, 426, 427, 428, 429, 430, 431, 432, 433, 434, 435, 436, 437, 438, 439, 440, 441, 442, 443, 444, 445, 446, 447, 448, 449, 450, 451, 452, 453, 454, 455, 456, 457, 458, 459, 460, 461, 462, 463, 464, 465, 466, 467, 468, 469, 470, 471, 472, 473, 474, 475, 476, 477, 478, 479, 480, 481, 482, 483, 484, 485, 486, 487, 488, 489, 490, 491, 492, 493, 494, 495, 496, 497, 498, 499],
      "AcquisitionTime": ["154559.575000", "154601.065000", "154602.555000", "154604.045000", "154605.535000", "154607.025000", "154608.515000", "154610.005000", "154611.495000", "154612.985000", "154614.475000", "154615.965000", "154617.455000", "154618.945000", "154620.435000", "154621.925000", "154623.415000", "154624.905000", "154626.395000", "154627.885000", "154629.375000", "154630.865000", "154632.355000", "154633.845000", "154635.335000", "154636.825000", "154638.315000", "154639.805000", "154641.295000", "154642.785000", "154644.275000", "154645.765000", "154647.255000", "154648.745000", "154650.235000", "154651.725000", "154653.215000", "154654.705000", "154656.195000", "154657.685000", "154659.175000", "154700.665000", "154702.155000", "154703.645000", "154705.135000", "154706.625000", "154708.115000", "154709.605000", "154711.095000", "154712.585000", "154714.075000", "154715.565000", "154717.055000", "154718.545000", "154720.035000", "154721.525000", "154723.015000", "154724.505000", "154725.995000", "154727.485000", "154728.975000", "154730.465000", "154731.955000", "154733.445000", "154734.935000", "154736.425000", "154737.915000", "154739.405000", "154740.895000", "154742.385000", "154743.875000", "154745.365000", "154746.855000", "154748.345000", "154749.835000", "154751.325000", "154752.815000", "154754.305000", "154755.795000", "154757.285000", "154758.775000", "154800.265000", "154801.755000", "154803.245000", "154804.735000", "154806.225000", "154807.715000", "154809.205000", "154810.695000", "154812.185000", "154813.675000", "154815.165000", "154816.655000", "154818.145000", "154819.635000", "154821.125000", "154822.615000", "154824.105000", "154825.595000", "154827.085000", "154828.575000", "154830.065000", "154831.555000", "154833.045000", "154834.535000", "154836.025000", "154837.515000", "154839.005000", "154840.495000", "154841.985000", "154843.475000", "154844.965000", "154846.455000", "154847.945000", "154849.435000", "154850.925000", "154852.415000", "154853.905000", "154855.395000", "154856.885000", "154858.375000", "154859.865000", "154901.355000", "154902.845000", "154904.335000", "154905.825000", "154907.315000", "154908.805000", "154910.295000", "154911.785000", "154913.275000", "154914.765000", "154916.255000", "154917.745000", "154919.235000", "154920.725000", "154922.215000", "154923.705000", "154925.195000", "154926.685000", "154928.175000", "154929.665000", "154931.155000", "154932.645000", "154934.135000", "154935.625000", "154937.115000", "154938.605000", "154940.095000", "154941.585000", "154943.075000", "154944.565000", "154946.055000", "154947.545000", "154949.035000", "154950.525000", "154952.015000", "154953.505000", "154954.995000", "154956.485000", "154957.975000", "154959.465000", "155000.955000", "155002.445000", "155003.935000", "155005.425000", "155006.915000", "155008.405000", "155009.895000", "155011.385000", "155012.875000", "155014.365000", "155015.855000", "155017.345000", "155018.835000", "155020.325000", "155021.815000", "155023.305000", "155024.795000", "155026.285000", "155027.775000", "155029.265000", "155030.755000", "155032.245000", "155033.735000", "155035.225000", "155036.715000", "155038.205000", "155039.695000", "155041.185000", "155042.675000", "155044.165000", "155045.655000", "155047.145000", "155048.635000", "155050.125000", "155051.615000", "155053.105000", "155054.595000", "155056.085000", "155057.575000", "155059.065000", "155100.555000", "155102.045000", "155103.535000", "155105.025000", "155106.515000", "155108.005000", "155109.495000", "155110.985000", "155112.475000", "155113.965000", "155115.455000", "155116.945000", "155118.435000", "155119.925000", "155121.415000", "155122.905000", "155124.395000", "155125.885000", "155127.375000", "155128.865000", "155130.355000", "155131.845000", "155133.335000", "155134.825000", "155136.315000", "155137.805000", "155139.295000", "155140.785000", "155142.275000", "155143.765000", "155145.255000", "155146.745000", "155148.235000", "155149.725000", "155151.215000", "155152.705000", "155154.195000", "155155.685000", "155157.175000", "155158.665000", "155200.155000", "155201.645000", "155203.135000", "155204.625000", "155206.115000", "155207.605000", "155209.095000", "155210.585000", "155212.075000", "155213.565000", "155215.055000", "155216.545000", "155218.035000", "155219.525000", "155221.015000", "155222.505000", "155223.995000", "155225.485000", "155226.975000", "155228.465000", "155229.955000", "155231.445000", "155232.935000", "155234.425000", "155235.915000", "155237.405000", "155238.895000", "155240.385000", "155241.875000", "155243.365000", "155244.855000", "155246.345000", "155247.835000", "155249.325000", "155250.815000", "155252.305000", "155253.795000", "155255.285000", "155256.775000", "155258.265000", "155259.755000", "155301.245000", "155302.735000", "155304.225000", "155305.715000", "155307.205000", "155308.695000", "155310.185000", "155311.675000", "155313.165000", "155314.655000", "155316.145000", "155317.635000", "155319.125000", "155320.615000", "155322.105000", "155323.595000", "155325.085000", "155326.575000", "155328.065000", "155329.555000", "155331.045000", "155332.535000", "155334.025000", "155335.515000", "155337.005000", "155338.495000", "155339.985000", "155341.475000", "155342.965000", "155344.455000", "155345.945000", "155347.435000", "155348.925000", "155350.415000", "155351.905000", "155353.395000", "155354.885000", "155356.375000", "155357.865000", "155359.355000", "155400.845000", "155402.335000", "155403.825000", "155405.315000", "155406.805000", "155408.295000", "155409.785000", "155411.275000", "155412.765000", "155414.255000", "155415.745000", "155417.235000", "155418.725000", "155420.215000", "155421.705000", "155423.195000", "155424.685000", "155426.175000", "155427.665000", "155429.155000", "155430.645000", "155432.135000", "155433.625000", "155435.115000", "155436.605000", "155438.095000", "155439.585000", "155441.075000", "155442.565000", "155444.055000", "155445.545000", "155447.035000", "155448.525000", "155450.015000", "155451.505000", "155452.995000", "155454.485000", "155455.975000", "155457.465000", "155458.955000", "155500.445000", "155501.935000", "155503.425000", "155504.915000", "155506.405000", "155507.895000", "155509.385000", "155510.875000", "155512.365000", "155513.855000", "155515.345000", "155516.835000", "155518.325000", "155519.815000", "155521.305000", "155522.795000", "155524.285000", "155525.775000", "155527.265000", "155528.755000", "155530.245000", "155531.735000", "155533.225000", "155534.715000", "155536.205000", "155537.695000", "155539.185000", "155540.675000", "155542.165000", "155543.655000", "155545.145000", "155546.635000", "155548.125000", "155549.615000", "155551.105000", "155552.595000", "155554.085000", "155555.575000", "155557.065000", "155558.555000", "155600.045000", "155601.535000", "155603.025000", "155604.515000", "155606.005000", "155607.495000", "155608.985000", "155610.475000", "155611.965000", "155613.455000", "155614.945000", "155616.435000", "155617.925000", "155619.415000", "155620.905000", "155622.395000", "155623.885000", "155625.375000", "155626.865000", "155628.355000", "155629.845000", "155631.335000", "155632.825000", "155634.315000", "155635.805000", "155637.295000", "155638.785000", "155640.275000", "155641.765000", "155643.255000", "155644.745000", "155646.235000", "155647.725000", "155649.215000", "155650.705000", "155652.195000", "155653.685000", "155655.175000", "155656.665000", "155658.155000", "155659.645000", "155701.135000", "155702.625000", "155704.115000", "155705.605000", "155707.095000", "155708.585000", "155710.075000", "155711.565000", "155713.055000", "155714.545000", "155716.035000", "155717.525000", "155719.015000", "155720.505000", "155721.995000", "155723.485000", "155724.975000", "155726.465000", "155727.955000", "155729.445000", "155730.935000", "155732.425000", "155733.915000", "155735.405000", "155736.895000", "155738.385000", "155739.875000", "155741.365000", "155742.855000", "155744.345000", "155745.835000", "155747.325000", "155748.815000", "155750.305000", "155751.795000", "155753.285000", "155754.775000", "155756.265000", "155757.755000", "155759.245000", "155800.735000", "155802.225000", "155803.715000", "155805.205000", "155806.695000", "155808.185000", "155809.675000", "155811.165000", "155812.655000", "155814.145000", "155815.635000", "155817.125000", "155818.615000", "155820.105000", "155821.595000"],
      "ContentTime": ["154658.398000", "154718.366000", "154718.370000", "154718.373000", "154718.376000", "154718.379000", "154718.381000", "154718.384000", "154718.387000", "154718.390000", "154718.393000", "154718.397000", "154718.400000", "154718.408000", "154718.411000", "154718.414000", "154718.417000", "154718.426000", "154718.429000", "154718.432000", "154718.435000", "154738.366000", "154738.369000", "154738.372000", "154738.375000", "154738.390000", "154738.393000", "154738.396000", "154738.398000", "154738.402000", "154738.404000", "154738.407000", "154738.410000", "154738.413000", "154738.416000", "154738.419000", "154738.422000", "154738.425000", "154738.428000", "154738.431000", "154738.434000", "154758.366000", "154758.369000", "154758.372000", "154758.375000", "154758.378000", "154758.381000", "154758.384000", "154758.387000", "154758.390000", "154758.392000", "154758.395000", "154758.398000", "154758.401000", "154758.404000", "154758.414000", "154758.416000", "154758.419000", "154758.422000", "154758.425000", "154758.428000", "154818.366000", "154818.369000", "154818.372000", "154818.375000", "154818.378000", "154818.381000", "154818.384000", "154818.386000", "154818.389000", "154818.392000", "154818.395000", "154818.398000", "154818.401000", "154818.404000", "154818.407000", "154818.410000", "154818.413000", "154818.416000", "154818.418000", "154818.421000", "154838.365000", "154838.368000", "154838.371000", "154838.374000", "154838.377000", "154838.380000", "154838.383000", "154838.386000", "154838.389000", "154838.392000", "154838.395000", "154838.398000", "154838.401000", "154838.403000", "154838.406000", "154838.409000", "154838.412000", "154838.415000", "154838.418000", "154838.421000", "154838.424000", "154918.366000", "154918.369000", "154918.372000", "154918.375000", "154918.378000", "154918.381000", "154918.389000", "154918.392000", "154918.395000", "154918.398000", "154918.401000", "154918.404000", "154918.406000", "154918.409000", "154918.412000", "154918.415000", "154918.418000", "154918.421000", "154918.424000", "154918.427000", "154918.430000", "154918.433000", "154918.436000", "154918.438000", "154918.441000", "154918.444000", "154918.447000", "154918.450000", "154918.453000", "154918.456000", "154958.366000", "154958.369000", "154958.372000", "154958.375000", "154958.378000", "154958.381000", "154958.384000", "154958.387000", "154958.389000", "154958.392000", "154958.395000", "154958.398000", "154958.401000", "154958.404000", "154958.407000", "154958.410000", "154958.413000", "154958.416000", "154958.418000", "154958.421000", "154958.424000", "154958.427000", "154958.430000", "154958.433000", "154958.436000", "154958.439000", "154958.442000", "155038.366000", "155038.369000", "155038.372000", "155038.375000", "155038.378000", "155038.381000", "155038.384000", "155038.387000", "155038.390000", "155038.392000", "155038.395000", "155038.398000", "155038.401000", "155038.404000", "155038.407000", "155038.410000", "155038.413000", "155038.416000", "155038.419000", "155038.421000", "155038.424000", "155038.427000", "155038.430000", "155038.433000", "155038.436000", "155038.439000", "155038.442000", "155118.365000", "155118.368000", "155118.371000", "155118.374000", "155118.377000", "155118.380000", "155118.383000", "155118.386000", "155118.389000", "155118.392000", "155118.395000", "155118.398000", "155118.401000", "155118.403000", "155118.406000", "155118.409000", "155118.412000", "155118.415000", "155118.418000", "155118.421000", "155118.424000", "155118.427000", "155118.430000", "155118.433000", "155118.436000", "155118.439000", "155118.441000", "155158.366000", "155158.369000", "155158.372000", "155158.375000", "155158.378000", "155158.381000", "155158.384000", "155158.387000", "155158.390000", "155158.393000", "155158.396000", "155158.399000", "155158.402000", "155158.405000", "155158.408000", "155158.410000", "155158.413000", "155158.416000", "155158.419000", "155158.422000", "155158.425000", "155158.428000", "155158.431000", "155158.434000", "155158.437000", "155158.440000", "155158.443000", "155238.366000", "155238.369000", "155238.372000", "155238.375000", "155238.378000", "155238.381000", "155238.384000", "155238.387000", "155238.390000", "155238.393000", "155238.396000", "155238.399000", "155238.402000", "155238.404000", "155238.407000", "155238.410000", "155238.413000", "155238.416000", "155238.419000", "155238.422000", "155238.425000", "155238.428000", "155238.431000", "155238.434000", "155238.437000", "155238.440000", "155318.365000", "155318.368000", "155318.371000", "155318.374000", "155318.377000", "155318.380000", "155318.383000", "155318.405000", "155318.408000", "155318.411000", "155318.414000", "155318.417000", "155318.419000", "155318.422000", "155318.425000", "155318.428000", "155318.431000", "155318.434000", "155318.437000", "155318.440000", "155318.459000", "155318.462000", "155318.465000", "155318.468000", "155318.471000", "155318.473000", "155318.476000", "155358.366000", "155358.369000", "155358.372000", "155358.375000", "155358.378000", "155358.381000", "155358.384000", "155358.387000", "155358.390000", "155358.393000", "155358.396000", "155358.399000", "155358.402000", "155358.404000", "155358.407000", "155358.410000", "155358.413000", "155358.416000", "155358.419000", "155358.422000", "155358.425000", "155358.428000", "155358.431000", "155358.434000", "155358.437000", "155358.440000", "155358.443000", "155438.366000", "155438.369000", "155438.372000", "155438.375000", "155438.378000", "155438.381000", "155438.384000", "155438.387000", "155438.390000", "155438.393000", "155438.396000", "155438.399000", "155438.402000", "155438.405000", "155438.408000", "155438.410000", "155438.413000", "155438.416000", "155438.419000", "155438.422000", "155438.425000", "155438.428000", "155438.431000", "155438.434000", "155438.437000", "155438.440000", "155438.443000", "155518.366000", "155518.369000", "155518.372000", "155518.375000", "155518.378000", "155518.381000", "155518.384000", "155518.387000", "155518.390000", "155518.393000", "155518.396000", "155518.399000", "155518.402000", "155518.405000", "155518.407000", "155518.410000", "155518.413000", "155518.416000", "155518.419000", "155518.422000", "155518.425000", "155518.428000", "155518.431000", "155518.434000", "155518.437000", "155518.440000", "155518.443000", "155558.365000", "155558.368000", "155558.371000", "155558.374000", "155558.377000", "155558.380000", "155558.383000", "155558.386000", "155558.389000", "155558.392000", "155558.395000", "155558.398000", "155558.401000", "155558.404000", "155558.407000", "155558.410000", "155558.412000", "155558.415000", "155558.418000", "155558.421000", "155558.424000", "155558.427000", "155558.430000", "155558.433000", "155558.436000", "155558.439000", "155558.442000", "155638.366000", "155638.369000", "155638.372000", "155638.375000", "155638.378000", "155638.381000", "155638.384000", "155638.387000", "155638.390000", "155638.393000", "155638.396000", "155638.399000", "155638.402000", "155638.405000", "155638.408000", "155638.411000", "155638.414000", "155638.417000", "155638.420000", "155638.423000", "155638.426000", "155638.429000", "155638.432000", "155638.434000", "155638.437000", "155638.440000", "155638.443000", "155658.366000", "155658.369000", "155658.372000", "155658.375000", "155658.378000", "155658.381000", "155658.384000", "155658.387000", "155658.390000", "155658.393000", "155658.396000", "155658.399000", "155658.402000", "155738.366000", "155738.369000", "155738.372000", "155738.375000", "155738.378000", "155738.381000", "155738.384000", "155738.387000", "155738.390000", "155738.393000", "155738.396000", "155738.398000", "155738.401000", "155738.404000", "155738.407000", "155738.410000", "155738.421000", "155738.424000", "155738.427000", "155738.430000", "155738.433000", "155738.435000", "155738.438000", "155738.441000", "155738.444000", "155738.447000", "155738.450000", "155818.365000", "155818.368000", "155818.371000", "155818.374000", "155818.377000", "155818.380000", "155818.383000", "155818.386000", "155818.389000", "155818.392000", "155818.395000", "155818.398000", "155818.401000", "155818.404000", "155818.407000", "155818.410000", "155818.413000", "155818.416000", "155818.419000", "155818.422000", "155818.425000", "155818.428000", "155818.431000", "155818.433000", "155818.436000", "155818.439000", "155818.442000", "155824.475000", "155824.479000", "155824.482000", "155824.485000"],
