{
  "AcquisitionMatrixPE": 104,
  "AcquisitionNumber": 1,
  "AcquisitionTime": "15:19:40.400000",
  "BandwidthPerPixelPhaseEncode": 17.17,
  "BaseResolution": 104,
  "BodyPartExamined": "BRAIN",
  "CoilString": "HC1-7;NC1_2",
  "ConsistencyInfo": "N4_VE11C_LATEST_20160120",
  "ConversionSoftware": "dcm2niix",
  "ConversionSoftwareVersion": "v1.0.20190902",
  "DerivedVendorReportedEchoSpacing": 0.000560011,
  "DeviceSerialNumber": "167006",
  "DwellTime": 2.1e-06,
  "EchoTime": 0.037,
  "EchoTrainLength": 104,
  "EffectiveEchoSpacing": 0.000560011,
  "FlipAngle": 52,
  "ImageComments": "Unaliased_MB4_PE3_LB",
  "ImageOrientationPatientDICOM": [0.998934, -0.0447595, 0.0113088, 0.0458854, 0.935647, -0.349942],
  "ImageType": [
    "ORIGINAL",
    "PRIMARY",
    "M",
    "MB",
    "ND",
    "MOSAIC"
],
  "ImagingFrequency": 123.259,
  "InPlanePhaseEncodingDirectionDICOM": "COL",
  "InstitutionAddress": "Chemin_Queen-Mary_4565_Montreal_District_CA_H3W_1W5",
  "InstitutionName": "IUGM",
  "InstitutionalDepartmentName": "Department",
  "MRAcquisitionType": "2D",
  "MagneticFieldStrength": 3,
  "Manufacturer": "Siemens",
  "ManufacturersModelName": "Prisma_fit",
  "Modality": "MR",
  "MultibandAccelerationFactor": 4,
  "PartialFourier": 1,
  "PatientPosition": "HFS",
  "PercentPhaseFOV": 100,
  "PhaseEncodingDirection": "j",
  "PhaseEncodingSteps": 104,
  "PhaseResolution": 1,
  "PixelBandwidth": 2290,
  "ProcedureStepDescription": "games_shinobi",
  "ProtocolName": "func_task-shinobi_run-1",
  "PulseSequenceDetails": "%CustomerSeq%_cmrr_mbep2d_bold",
  "ReceiveCoilActiveElements": "HC1-7;NC1,2",
  "ReceiveCoilName": "HeadNeck_64",
  "ReconMatrixPE": 104,
  "RepetitionTime": 1.49,
  "SAR": 0.0307612,
  "ScanOptions": "FS",
  "ScanningSequence": "EP",
  "SequenceName": "epfid2d1_104",
  "SequenceVariant": "SK_SS",
  "SeriesDescription": "func_task-shinobi_run-1",
  "SeriesNumber": 9,
  "ShimSetting": [638, -7252, -8864, 575, 12, -236, -79, 4],
  "SliceThickness": 2,
  "SliceTiming": [0, 0.7825, 0.0975, 0.8825, 0.195, 0.98, 0.2925, 1.0775, 0.3925, 1.175, 0.49, 1.2725, 0.5875, 1.3725, 0.685, 0, 0.7825, 0.0975, 0.8825, 0.195, 0.98, 0.2925, 1.0775, 0.3925, 1.175, 0.49, 1.2725, 0.5875, 1.3725, 0.685, 0, 0.7825, 0.0975, 0.8825, 0.195, 0.98, 0.2925, 1.0775, 0.3925, 1.175, 0.49, 1.2725, 0.5875, 1.3725, 0.685, 0, 0.7825, 0.0975, 0.8825, 0.195, 0.98, 0.2925, 1.0775, 0.3925, 1.175, 0.49, 1.2725, 0.5875, 1.3725, 0.685],
  "SoftwareVersions": "syngo_MR_E11",
  "SpacingBetweenSlices": 2,
  "StationName": "MRC35049",
  "TaskName": "shinobi",
  "TotalReadoutTime": 0.0576811,
  "TxRefAmp": 220.627,
  "WipMemBlock": "bc7a1068-1dd2-4f82-8f5b-73985c38fc58||Sequence: R016 ve11c/master r/e634e98; Dec 19 2017 11:00:25 by eja",
  "dcmmeta_affine": [
    [-1.9978675842285156, 0.09177088737487793, -0.0101645328104496, 102.10553741455078],
    [0.08951906114816666, 1.8712934255599976, -0.7001765966415405, -68.16898345947266],
    [0.02261750027537346, 0.6998849511146545, 1.873405933380127, -77.37745666503906],
    [0.0, 0.0, 0.0, 1.0]
],
  "dcmmeta_reorient_transform": [
    [0.0, -1.0, 0.0, 103.0],
    [1.0, 0.0, 0.0, 0.0],
    [0.0, 0.0, 1.0, 0.0],
    [0.0, 0.0, 0.0, 1.0]
],
  "dcmmeta_shape": [104, 104, 60, 513],
  "dcmmeta_slice_dim": 2,
  "dcmmeta_version": 0.6,
  "global": {
    "const": {
      "AcquisitionMatrix": [104, 0, 0, 104],
      "AngioFlag": "N",
      "BitsAllocated": 16,
      "BitsStored": 16,
      "BodyPartExamined": "BRAIN",
      "Columns": 832,
      "EchoNumbers": 1,
      "EchoTime": 37.0,
      "EchoTrainLength": 104,
      "FlipAngle": 52.0,
      "HighBit": 15,
      "ImageOrientationPatient": [0.99893377986241, -0.0447595310211, 0.01130875026522, 0.0458854445254, 0.93564672038288, -0.3499424818702],
      "ImagePositionPatient": [-872.18633226619, -773.14011382378, 241.23605110281],
      "ImageType": [
        "ORIGINAL",
        "PRIMARY",
        "M",
        "MB",
        "ND",
        "MOSAIC"
],
      "ImagedNucleus": "1H",
      "ImagingFrequency": 123.258985,
      "InPlanePhaseEncodingDirection": "COL",
      "MRAcquisitionType": "2D",
      "MagneticFieldStrength": 3.0,
      "Manufacturer": "SIEMENS",
      "ManufacturerModelName": "Prisma_fit",
      "Modality": "MR",
      "NumberOfAverages": 1.0,
      "NumberOfPhaseEncodingSteps": 104,
      "PercentPhaseFieldOfView": 100.0,
      "PercentSampling": 100.0,
      "PerformedProcedureStepStartTime": "150809.261000",
      "PhotometricInterpretation": "MONOCHROME2",
      "PixelBandwidth": 2290.0,
      "PixelRepresentation": 0,
      "PixelSpacing": [2.0, 2.0],
      "ProtocolName": "func_task-shinobi_run-1",
      "RepetitionTime": 1490.0,
      "Rows": 832,
      "SAR": 0.03076123332891,
      "SamplesPerPixel": 1,
      "ScanOptions": "FS",
      "ScanningSequence": "EP",
      "SequenceName": "epfid2d1_104",
      "SequenceVariant": [
        "SK",
        "SS"
],
      "SeriesDescription": "func_task-shinobi_run-1",
      "SeriesNumber": 9,
      "SeriesTime": "152056.210000",
      "SliceLocation": -49.133455637576,
      "SliceThickness": 2.0,
      "SmallestImagePixelValue": 0,
      "SoftwareVersions": "syngo MR E11",
      "SpacingBetweenSlices": 2.0000000591166,
      "SpecificCharacterSet": "ISO_IR 100",
      "StudyID": "1",
      "StudyTime": "150809.193000",
      "TransmitCoilName": "Body",
      "VariableFlipAngleFlag": "N",
      "WindowCenterWidthExplanation": "Algo1",
      "dBdt": 0.0},
    "slices": {}
  },
  "time": {
    "samples": {
      "AcquisitionNumber": [1, 2, 3, 4, 5, 6, 7, 8, 9, 10, 11, 12, 13, 14, 15, 16, 17, 18, 19, 20, 21, 22, 23, 24, 25, 26, 27, 28, 29, 30, 31, 32, 33, 34, 35, 36, 37, 38, 39, 40, 41, 42, 43, 44, 45, 46, 47, 48, 49, 50, 51, 52, 53, 54, 55, 56, 57, 58, 59, 60, 61, 62, 63, 64, 65, 66, 67, 68, 69, 70, 71, 72, 73, 74, 75, 76, 77, 78, 79, 80, 81, 82, 83, 84, 85, 86, 87, 88, 89, 90, 91, 92, 93, 94, 95, 96, 97, 98, 99, 100, 101, 102, 103, 104, 105, 106, 107, 108, 109, 110, 111, 112, 113, 114, 115, 116, 117, 118, 119, 120, 121, 122, 123, 124, 125, 126, 127, 128, 129, 130, 131, 132, 133, 134, 135, 136, 137, 138, 139, 140, 141, 142, 143, 144, 145, 146, 147, 148, 149, 150, 151, 152, 153, 154, 155, 156, 157, 158, 159, 160, 161, 162, 163, 164, 165, 166, 167, 168, 169, 170, 171, 172, 173, 174, 175, 176, 177, 178, 179, 180, 181, 182, 183, 184, 185, 186, 187, 188, 189, 190, 191, 192, 193, 194, 195, 196, 197, 198, 199, 200, 201, 202, 203, 204, 205, 206, 207, 208, 209, 210, 211, 212, 213, 214, 215, 216, 217, 218, 219, 220, 221, 222, 223, 224, 225, 226, 227, 228, 229, 230, 231, 232, 233, 234, 235, 236, 237, 238, 239, 240, 241, 242, 243, 244, 245, 246, 247, 248, 249, 250, 251, 252, 253, 254, 255, 256, 257, 258, 259, 260, 261, 262, 263, 264, 265, 266, 267, 268, 269, 270, 271, 272, 273, 274, 275, 276, 277, 278, 279, 280, 281, 282, 283, 284, 285, 286, 287, 288, 289, 290, 291, 292, 293, 294, 295, 296, 297, 298, 299, 300, 301, 302, 303, 304, 305, 306, 307, 308, 309, 310, 311, 312, 313, 314, 315, 316, 317, 318, 319, 320, 321, 322, 323, 324, 325, 326, 327, 328, 329, 330, 331, 332, 333, 334, 335, 336, 337, 338, 339, 340, 341, 342, 343, 344, 345, 346, 347, 348, 349, 350, 351, 352, 353, 354, 355, 356, 357, 358, 359, 360, 361, 362, 363, 364, 365, 366, 367, 368, 369, 370, 371, 372, 373, 374, 375, 376, 377, 378, 379, 380, 381, 382, 383, 384, 385, 386, 387, 388, 389, 390, 391, 392, 393, 394, 395, 396, 397, 398, 399, 400, 401, 402, 403, 404, 405, 406, 407, 408, 409, 410, 411, 412, 413, 414, 415, 416, 417, 418, 419, 420, 421, 422, 423, 424, 425, 426, 427, 428, 429, 430, 431, 432, 433, 434, 435, 436, 437, 438, 439, 440, 441, 442, 443, 444, 445, 446, 447, 448, 449, 450, 451, 452, 453, 454, 455, 456, 457, 458, 459, 460, 461, 462, 463, 464, 465, 466, 467, 468, 469, 470, 471, 472, 473, 474, 475, 476, 477, 478, 479, 480, 481, 482, 483, 484, 485, 486, 487, 488, 489, 490, 491, 492, 493, 494, 495, 496, 497, 498, 499, 500, 501, 502, 503, 504, 505, 506, 507, 508, 509, 510, 511, 512, 513],
      "AcquisitionTime": ["151940.400000", "151941.890000", "151943.380000", "151944.870000", "151946.360000", "151947.850000", "151949.340000", "151950.830000", "151952.320000", "151953.810000", "151955.300000", "151956.790000", "151958.280000", "151959.770000", "152001.260000", "152002.750000", "152004.240000", "152005.730000", "152007.220000", "152008.710000", "152010.200000", "152011.690000", "152013.180000", "152014.670000", "152016.160000", "152017.650000", "152019.140000", "152020.630000", "152022.120000", "152023.610000", "152025.100000", "152026.590000", "152028.080000", "152029.570000", "152031.060000", "152032.550000", "152034.040000", "152035.530000", "152037.020000", "152038.510000", "152040.000000", "152041.490000", "152042.980000", "152044.470000", "152045.960000", "152047.450000", "152048.940000", "152050.430000", "152051.920000", "152053.410000", "152054.900000", "152056.390000", "152057.880000", "152059.370000", "152100.860000", "152102.350000", "152103.840000", "152105.330000", "152106.820000", "152108.310000", "152109.800000", "152111.290000", "152112.780000", "152114.270000", "152115.760000", "152117.250000", "152118.740000", "152120.230000", "152121.720000", "152123.210000", "152124.700000", "152126.190000", "152127.680000", "152129.170000", "152130.660000", "152132.150000", "152133.640000", "152135.130000", "152136.620000", "152138.110000", "152139.600000", "152141.090000", "152142.580000", "152144.070000", "152145.560000", "152147.050000", "152148.540000", "152150.030000", "152151.520000", "152153.010000", "152154.500000", "152155.990000", "152157.480000", "152158.970000", "152200.460000", "152201.950000", "152203.440000", "152204.930000", "152206.420000", "152207.910000", "152209.400000", "152210.890000", "152212.380000", "152213.870000", "152215.360000", "152216.850000", "152218.340000", "152219.830000", "152221.320000", "152222.810000", "152224.300000", "152225.790000", "152227.280000", "152228.770000", "152230.260000", "152231.750000", "152233.240000", "152234.730000", "152236.220000", "152237.710000", "152239.200000", "152240.690000", "152242.180000", "152243.670000", "152245.160000", "152246.650000", "152248.140000", "152249.630000", "152251.120000", "152252.610000", "152254.100000", "152255.590000", "152257.080000", "152258.570000", "152300.060000", "152301.550000", "152303.040000", "152304.530000", "152306.020000", "152307.510000", "152309.000000", "152310.490000", "152311.980000", "152313.470000", "152314.960000", "152316.450000", "152317.940000", "152319.430000", "152320.920000", "152322.410000", "152323.900000", "152325.390000", "152326.880000", "152328.370000", "152329.860000", "152331.350000", "152332.840000", "152334.330000", "152335.820000", "152337.310000", "152338.800000", "152340.290000", "152341.780000", "152343.270000", "152344.760000", "152346.250000", "152347.740000", "152349.230000", "152350.720000", "152352.210000", "152353.700000", "152355.190000", "152356.680000", "152358.170000", "152359.660000", "152401.150000", "152402.640000", "152404.130000", "152405.620000", "152407.110000", "152408.600000", "152410.090000", "152411.580000", "152413.070000", "152414.560000", "152416.050000", "152417.540000", "152419.030000", "152420.520000", "152422.010000", "152423.500000", "152424.990000", "152426.480000", "152427.970000", "152429.460000", "152430.950000", "152432.440000", "152433.930000", "152435.420000", "152436.910000", "152438.400000", "152439.890000", "152441.380000", "152442.870000", "152444.360000", "152445.850000", "152447.340000", "152448.830000", "152450.320000", "152451.810000", "152453.300000", "152454.790000", "152456.280000", "152457.770000", "152459.260000", "152500.750000", "152502.240000", "152503.730000", "152505.220000", "152506.710000", "152508.200000", "152509.690000", "152511.180000", "152512.670000", "152514.160000", "152515.650000", "152517.140000", "152518.630000", "152520.120000", "152521.610000", "152523.100000", "152524.590000", "152526.080000", "152527.570000", "152529.060000", "152530.550000", "152532.040000", "152533.530000", "152535.020000", "152536.510000", "152538.000000", "152539.490000", "152540.980000", "152542.470000", "152543.960000", "152545.450000", "152546.940000", "152548.430000", "152549.920000", "152551.410000", "152552.900000", "152554.390000", "152555.880000", "152557.370000", "152558.860000", "152600.350000", "152601.840000", "152603.330000", "152604.820000", "152606.310000", "152607.800000", "152609.290000", "152610.780000", "152612.270000", "152613.760000", "152615.250000", "152616.740000", "152618.230000", "152619.720000", "152621.210000", "152622.700000", "152624.190000", "152625.680000", "152627.170000", "152628.660000", "152630.150000", "152631.640000", "152633.130000", "152634.620000", "152636.110000", "152637.600000", "152639.090000", "152640.580000", "152642.070000", "152643.560000", "152645.050000", "152646.540000", "152648.030000", "152649.520000", "152651.010000", "152652.500000", "152653.990000", "152655.480000", "152656.970000", "152658.460000", "152659.950000", "152701.440000", "152702.930000", "152704.420000", "152705.910000", "152707.400000", "152708.890000", "152710.380000", "152711.870000", "152713.360000", "152714.850000", "152716.340000", "152717.830000", "152719.320000", "152720.810000", "152722.300000", "152723.790000", "152725.280000", "152726.770000", "152728.260000", "152729.750000", "152731.240000", "152732.730000", "152734.220000", "152735.710000", "152737.200000", "152738.690000", "152740.180000", "152741.670000", "152743.160000", "152744.650000", "152746.140000", "152747.630000", "152749.120000", "152750.610000", "152752.100000", "152753.590000", "152755.080000", "152756.570000", "152758.060000", "152759.550000", "152801.040000", "152802.530000", "152804.020000", "152805.510000", "152807.000000", "152808.490000", "152809.980000", "152811.470000", "152812.960000", "152814.450000", "152815.940000", "152817.430000", "152818.920000", "152820.410000", "152821.900000", "152823.390000", "152824.880000", "152826.370000", "152827.860000", "152829.350000", "152830.840000", "152832.330000", "152833.820000", "152835.310000", "152836.800000", "152838.290000", "152839.780000", "152841.270000", "152842.760000", "152844.250000", "152845.740000", "152847.230000", "152848.720000", "152850.210000", "152851.700000", "152853.190000", "152854.680000", "152856.170000", "152857.660000", "152859.150000", "152900.640000", "152902.130000", "152903.620000", "152905.110000", "152906.600000", "152908.090000", "152909.580000", "152911.070000", "152912.560000", "152914.050000", "152915.540000", "152917.030000", "152918.520000", "152920.010000", "152921.500000", "152922.990000", "152924.480000", "152925.970000", "152927.460000", "152928.950000", "152930.440000", "152931.930000", "152933.420000", "152934.910000", "152936.400000", "152937.890000", "152939.380000", "152940.870000", "152942.360000", "152943.850000", "152945.340000", "152946.830000", "152948.320000", "152949.810000", "152951.300000", "152952.790000", "152954.280000", "152955.770000", "152957.260000", "152958.750000", "153000.240000", "153001.730000", "153003.220000", "153004.710000", "153006.200000", "153007.690000", "153009.180000", "153010.670000", "153012.160000", "153013.650000", "153015.140000", "153016.630000", "153018.120000", "153019.610000", "153021.100000", "153022.590000", "153024.080000", "153025.570000", "153027.060000", "153028.550000", "153030.040000", "153031.530000", "153033.020000", "153034.510000", "153036.000000", "153037.490000", "153038.980000", "153040.470000", "153041.960000", "153043.450000", "153044.940000", "153046.430000", "153047.920000", "153049.410000", "153050.900000", "153052.390000", "153053.880000", "153055.370000", "153056.860000", "153058.350000", "153059.840000", "153101.330000", "153102.820000", "153104.310000", "153105.800000", "153107.290000", "153108.780000", "153110.270000", "153111.760000", "153113.250000", "153114.740000", "153116.230000", "153117.720000", "153119.210000", "153120.700000", "153122.190000", "153123.680000", "153125.170000", "153126.660000", "153128.150000", "153129.640000", "153131.130000", "153132.620000", "153134.110000", "153135.600000", "153137.090000", "153138.580000", "153140.070000", "153141.560000", "153143.050000", "153144.540000", "153146.030000", "153147.520000", "153149.010000", "153150.500000", "153151.990000", "153153.480000", "153154.970000", "153156.460000", "153157.950000", "153159.440000", "153200.930000", "153202.420000", "153203.910000", "153205.400000", "153206.890000", "153208.380000", "153209.870000", "153211.360000", "153212.850000", "153214.340000", "153215.830000", "153217.320000", "153218.810000", "153220.300000", "153221.790000", "153223.280000"],
      "ContentTime": ["152056.212000", "152056.216000", "152056.219000", "152056.222000", "152056.224000", "152056.228000", "152056.230000", "152056.233000", "152056.236000", "152056.244000", "152056.247000", "152056.250000", "152056.253000", "152056.256000", "152056.259000", "152056.262000", "152056.265000", "152056.268000", "152056.271000", "152056.273000", "152056.276000", "152056.279000", "152116.164000", "152116.167000", "152116.170000", "152116.173000", "152116.176000", "152116.179000", "152116.182000", "152116.185000", "152116.187000", "152116.190000", "152116.193000", "152116.196000", "152116.199000", "152116.202000", "152116.205000", "152116.208000", "152116.211000", "152116.213000", "152116.216000", "152116.219000", "152136.164000", "152136.173000", "152136.176000", "152136.179000", "152136.182000", "152136.185000", "152136.188000", "152136.191000", "152136.194000", "152136.197000", "152136.200000", "152136.203000", "152136.206000", "152136.208000", "152136.212000", "152136.214000", "152136.217000", "152136.220000", "152136.223000", "152136.226000", "152156.165000", "152156.168000", "152156.171000", "152156.174000", "152156.177000", "152156.180000", "152156.183000", "152156.186000", "152156.189000", "152156.192000", "152156.202000", "152156.205000", "152156.208000", "152156.211000", "152156.214000", "152156.217000", "152156.220000", "152156.223000", "152156.226000", "152156.229000", "152216.164000", "152216.167000", "152216.170000", "152216.173000", "152216.176000", "152216.179000", "152216.182000", "152216.184000", "152216.187000", "152216.190000", "152216.193000", "152216.196000", "152216.199000", "152216.202000", "152216.205000", "152216.208000", "152216.211000", "152216.214000", "152216.217000", "152216.219000", "152256.164000", "152256.167000", "152256.170000", "152256.173000", "152256.176000", "152256.179000", "152256.182000", "152256.185000", "152256.188000", "152256.190000", "152256.193000", "152256.196000", "152256.199000", "152256.202000", "152256.205000", "152256.208000", "152256.211000", "152256.214000", "152256.217000", "152256.220000", "152256.223000", "152256.225000", "152256.228000", "152256.231000", "152256.234000", "152256.237000", "152256.240000", "152256.243000", "152336.164000", "152336.167000", "152336.170000", "152336.173000", "152336.176000", "152336.179000", "152336.182000", "152336.184000", "152336.187000", "152336.190000", "152336.193000", "152336.196000", "152336.199000", "152336.202000", "152336.205000", "152336.208000", "152336.211000", "152336.214000", "152336.217000", "152336.219000", "152336.222000", "152336.225000", "152336.228000", "152336.231000", "152336.234000", "152336.237000", "152336.240000", "152416.165000", "152416.168000", "152416.171000", "152416.174000", "152416.177000", "152416.180000", "152416.183000", "152416.186000", "152416.189000", "152416.191000", "152416.194000", "152416.197000", "152416.200000", "152416.203000", "152416.206000", "152416.209000", "152416.212000", "152416.215000", "152416.218000", "152416.221000", "152416.224000", "152416.227000", "152416.230000", "152416.233000", "152416.236000", "152416.239000", "152416.242000", "152456.164000", "152456.167000", "152456.170000", "152456.173000", "152456.176000", "152456.179000", "152456.182000", "152456.185000", "152456.188000", "152456.190000", "152456.193000", "152456.212000", "152456.215000", "152456.218000", "152456.221000", "152456.223000", "152456.226000", "152456.229000", "152456.232000", "152456.235000", "152456.238000", "152456.241000", "152456.244000", "152456.247000", "152456.250000", "152456.253000", "152456.256000", "152536.164000", "152536.167000", "152536.170000", "152536.173000", "152536.176000", "152536.179000", "152536.182000", "152536.185000", "152536.188000", "152536.191000", "152536.194000", "152536.196000", "152536.199000", "152536.202000", "152536.205000", "152536.208000", "152536.211000", "152536.214000", "152536.217000", "152536.220000", "152536.223000", "152536.226000", "152536.229000", "152536.232000", "152536.235000", "152536.238000", "152536.241000", "152616.164000", "152616.167000", "152616.170000", "152616.173000", "152616.176000", "152616.179000", "152616.182000", "152616.185000", "152616.188000", "152616.191000", "152616.194000", "152616.197000", "152616.200000", "152616.203000", "152616.206000", "152616.208000", "152616.212000", "152616.214000", "152616.217000", "152616.220000", "152616.223000", "152616.226000", "152616.229000", "152616.232000", "152616.235000", "152616.238000", "152616.241000", "152656.164000", "152656.167000", "152656.170000", "152656.173000", "152656.176000", "152656.179000", "152656.182000", "152656.185000", "152656.188000", "152656.191000", "152656.194000", "152656.197000", "152656.200000", "152656.203000", "152656.206000", "152656.209000", "152656.212000", "152656.215000", "152656.218000", "152656.221000", "152656.223000", "152656.226000", "152656.229000", "152656.232000", "152656.235000", "152656.238000", "152736.164000", "152736.167000", "152736.170000", "152736.173000", "152736.176000", "152736.179000", "152736.182000", "152736.185000", "152736.188000", "152736.191000", "152736.194000", "152736.197000", "152736.199000", "152736.203000", "152736.205000", "152736.208000", "152736.211000", "152736.214000", "152736.217000", "152736.220000", "152736.223000", "152736.226000", "152736.229000", "152736.232000", "152736.235000", "152736.238000", "152736.241000", "152816.164000", "152816.167000", "152816.170000", "152816.173000", "152816.176000", "152816.179000", "152816.182000", "152816.185000", "152816.188000", "152816.202000", "152816.205000", "152816.208000", "152816.211000", "152816.214000", "152816.217000", "152816.220000", "152816.223000", "152816.225000", "152816.228000", "152816.231000", "152816.234000", "152816.237000", "152816.240000", "152816.243000", "152816.246000", "152816.249000", "152816.252000", "152856.165000", "152856.168000", "152856.171000", "152856.174000", "152856.177000", "152856.180000", "152856.183000", "152856.186000", "152856.189000", "152856.192000", "152856.195000", "152856.198000", "152856.201000", "152856.204000", "152856.206000", "152856.209000", "152856.212000", "152856.215000", "152856.218000", "152856.221000", "152856.224000", "152856.227000", "152856.230000", "152856.233000", "152856.236000", "152856.239000", "152856.242000", "152936.164000", "152936.167000", "152936.170000", "152936.173000", "152936.176000", "152936.179000", "152936.200000", "152936.203000", "152936.206000", "152936.209000", "152936.212000", "152936.215000", "152936.218000", "152936.221000", "152936.224000", "152936.227000", "152936.230000", "152936.233000", "152936.236000", "152936.239000", "152936.242000", "152936.244000", "152936.247000", "152936.250000", "152936.253000", "152936.256000", "152936.259000", "153016.164000", "153016.167000", "153016.170000", "153016.173000", "153016.176000", "153016.179000", "153016.182000", "153016.185000", "153016.188000", "153016.191000", "153016.194000", "153016.197000", "153016.200000", "153016.203000", "153016.206000", "153016.209000", "153016.212000", "153016.215000", "153016.217000", "153016.220000", "153016.223000", "153016.226000", "153016.229000", "153016.232000", "153016.235000", "153016.238000", "153016.241000", "153056.165000", "153056.169000", "153056.172000", "153056.175000", "153056.178000", "153056.181000", "153056.184000", "153056.187000", "153056.191000", "153056.193000", "153056.196000", "153056.199000", "153056.202000", "153056.205000", "153056.208000", "153056.211000", "153056.214000", "153056.217000", "153056.220000", "153056.223000", "153056.226000", "153056.229000", "153056.232000", "153056.234000", "153056.237000", "153056.240000", "153136.164000", "153136.167000", "153136.170000", "153136.173000", "153136.176000", "153136.179000", "153136.182000", "153136.185000", "153136.188000", "153136.191000", "153136.194000", "153136.197000", "153136.200000", "153136.203000", "153136.206000", "153136.209000", "153136.212000", "153136.214000", "153136.218000", "153136.220000", "153136.223000", "153136.226000", "153136.229000", "153136.232000", "153136.235000", "153136.238000", "153136.241000", "153216.164000", "153216.167000", "153216.170000", "153216.173000", "153216.176000", "153216.179000", "153216.182000", "153216.185000", "153216.188000", "153216.191000", "153216.194000", "153216.197000", "153216.200000", "153216.203000", "153216.206000", "153216.209000", "153216.212000", "153216.215000", "153216.218000", "153216.221000", "153216.224000", "153216.227000", "153216.230000", "153216.232000", "153216.235000", "153216.238000", "153216.241000", "153226.008000", "153226.013000", "153226.016000", "153226.020000", "153226.025000", "153226.028000", "153226.031000"],
