{
  "AcquisitionMatrixPE": 104,
  "AcquisitionNumber": 1,
  "AcquisitionTime": "15:33:6.805000",
  "BandwidthPerPixelPhaseEncode": 17.17,
  "BaseResolution": 104,
  "BodyPartExamined": "BRAIN",
  "CoilString": "HC1-7;NC1_2",
  "ConsistencyInfo": "N4_VE11C_LATEST_20160120",
  "ConversionSoftware": "dcm2niix",
  "ConversionSoftwareVersion": "v1.0.20190902",
  "DerivedVendorReportedEchoSpacing": 0.000560011,
  "DeviceSerialNumber": "167006",
  "DwellTime": 2.1e-06,
  "EchoTime": 0.037,
  "EchoTrainLength": 104,
  "EffectiveEchoSpacing": 0.000560011,
  "FlipAngle": 52,
  "ImageComments": "Unaliased_MB4_PE3_LB",
  "ImageOrientationPatientDICOM": [0.998934, -0.0447595, 0.0113088, 0.0458854, 0.935647, -0.349942],
  "ImageType": [
    "ORIGINAL",
    "PRIMARY",
    "M",
    "MB",
    "ND",
    "MOSAIC"
],
  "ImagingFrequency": 123.259,
  "InPlanePhaseEncodingDirectionDICOM": "COL",
  "InstitutionAddress": "Chemin_Queen-Mary_4565_Montreal_District_CA_H3W_1W5",
  "InstitutionName": "IUGM",
  "InstitutionalDepartmentName": "Department",
  "MRAcquisitionType": "2D",
  "MagneticFieldStrength": 3,
  "Manufacturer": "Siemens",
  "ManufacturersModelName": "Prisma_fit",
  "Modality": "MR",
  "MultibandAccelerationFactor": 4,
  "PartialFourier": 1,
  "PatientPosition": "HFS",
  "PercentPhaseFOV": 100,
  "PhaseEncodingDirection": "j",
  "PhaseEncodingSteps": 104,
  "PhaseResolution": 1,
  "PixelBandwidth": 2290,
  "ProcedureStepDescription": "games_shinobi",
  "ProtocolName": "func_task-shinobi_run-2",
  "PulseSequenceDetails": "%CustomerSeq%_cmrr_mbep2d_bold",
  "ReceiveCoilActiveElements": "HC1-7;NC1,2",
  "ReceiveCoilName": "HeadNeck_64",
  "ReconMatrixPE": 104,
  "RepetitionTime": 1.49,
  "SAR": 0.0307612,
  "ScanOptions": "FS",
  "ScanningSequence": "EP",
  "SequenceName": "epfid2d1_104",
  "SequenceVariant": "SK_SS",
  "SeriesDescription": "func_task-shinobi_run-2",
  "SeriesNumber": 11,
  "ShimSetting": [638, -7252, -8864, 575, 12, -236, -79, 4],
  "SliceThickness": 2,
  "SliceTiming": [0, 0.785, 0.1, 0.8825, 0.1975, 0.98, 0.295, 1.08, 0.3925, 1.1775, 0.49, 1.275, 0.59, 1.3725, 0.6875, 0, 0.785, 0.1, 0.8825, 0.1975, 0.98, 0.295, 1.08, 0.3925, 1.1775, 0.49, 1.275, 0.59, 1.3725, 0.6875, 0, 0.785, 0.1, 0.8825, 0.1975, 0.98, 0.295, 1.08, 0.3925, 1.1775, 0.49, 1.275, 0.59, 1.3725, 0.6875, 0, 0.785, 0.1, 0.8825, 0.1975, 0.98, 0.295, 1.08, 0.3925, 1.1775, 0.49, 1.275, 0.59, 1.3725, 0.6875],
  "SoftwareVersions": "syngo_MR_E11",
  "SpacingBetweenSlices": 2,
  "StationName": "MRC35049",
  "TaskName": "shinobi",
  "TotalReadoutTime": 0.0576811,
  "TxRefAmp": 220.627,
  "WipMemBlock": "4fcad9fb-ac50-400d-8585-9f4a117395e2||Sequence: R016 ve11c/master r/e634e98; Dec 19 2017 11:00:25 by eja",
  "dcmmeta_affine": [
    [-1.9978675842285156, 0.09177088737487793, -0.0101645328104496, 102.10553741455078],
    [0.08951906114816666, 1.8712934255599976, -0.7001765966415405, -68.16898345947266],
    [0.02261750027537346, 0.6998849511146545, 1.873405933380127, -77.37745666503906],
    [0.0, 0.0, 0.0, 1.0]
],
  "dcmmeta_reorient_transform": [
    [0.0, -1.0, 0.0, 103.0],
    [1.0, 0.0, 0.0, 0.0],
    [0.0, 0.0, 1.0, 0.0],
    [0.0, 0.0, 0.0, 1.0]
],
  "dcmmeta_shape": [104, 104, 60, 474],
  "dcmmeta_slice_dim": 2,
  "dcmmeta_version": 0.6,
  "global": {
    "const": {
      "AcquisitionMatrix": [104, 0, 0, 104],
      "AngioFlag": "N",
      "BitsAllocated": 16,
      "BitsStored": 16,
      "BodyPartExamined": "BRAIN",
      "Columns": 832,
      "EchoNumbers": 1,
      "EchoTime": 37.0,
      "EchoTrainLength": 104,
      "FlipAngle": 52.0,
      "HighBit": 15,
      "ImageOrientationPatient": [0.99893377986241, -0.0447595310211, 0.01130875026522, 0.0458854445254, 0.93564672038288, -0.3499424818702],
      "ImagePositionPatient": [-872.18633226619, -773.14011382378, 241.23605110281],
      "ImageType": [
        "ORIGINAL",
        "PRIMARY",
        "M",
        "MB",
        "ND",
        "MOSAIC"
],
      "ImagedNucleus": "1H",
      "ImagingFrequency": 123.258994,
      "InPlanePhaseEncodingDirection": "COL",
      "MRAcquisitionType": "2D",
      "MagneticFieldStrength": 3.0,
      "Manufacturer": "SIEMENS",
      "ManufacturerModelName": "Prisma_fit",
      "Modality": "MR",
      "NumberOfAverages": 1.0,
      "NumberOfPhaseEncodingSteps": 104,
      "PercentPhaseFieldOfView": 100.0,
      "PercentSampling": 100.0,
      "PerformedProcedureStepStartTime": "150809.261000",
      "PhotometricInterpretation": "MONOCHROME2",
      "PixelBandwidth": 2290.0,
      "PixelRepresentation": 0,
      "PixelSpacing": [2.0, 2.0],
      "ProtocolName": "func_task-shinobi_run-2",
      "RepetitionTime": 1490.0,
      "Rows": 832,
      "SAR": 0.03076123332891,
      "SamplesPerPixel": 1,
      "ScanOptions": "FS",
      "ScanningSequence": "EP",
      "SequenceName": "epfid2d1_104",
      "SequenceVariant": [
        "SK",
        "SS"
],
      "SeriesDescription": "func_task-shinobi_run-2",
      "SeriesNumber": 11,
      "SeriesTime": "153428.304000",
      "SliceLocation": -49.133455637576,
      "SliceThickness": 2.0,
      "SmallestImagePixelValue": 0,
      "SoftwareVersions": "syngo MR E11",
      "SpacingBetweenSlices": 2.0000000591166,
      "SpecificCharacterSet": "ISO_IR 100",
      "StudyID": "1",
      "StudyTime": "150809.193000",
      "TransmitCoilName": "Body",
      "VariableFlipAngleFlag": "N",
      "WindowCenterWidthExplanation": "Algo1",
      "dBdt": 0.0},
    "slices": {}
  },
  "time": {
    "samples": {
      "AcquisitionNumber": [1, 2, 3, 4, 5, 6, 7, 8, 9, 10, 11, 12, 13, 14, 15, 16, 17, 18, 19, 20, 21, 22, 23, 24, 25, 26, 27, 28, 29, 30, 31, 32, 33, 34, 35, 36, 37, 38, 39, 40, 41, 42, 43, 44, 45, 46, 47, 48, 49, 50, 51, 52, 53, 54, 55, 56, 57, 58, 59, 60, 61, 62, 63, 64, 65, 66, 67, 68, 69, 70, 71, 72, 73, 74, 75, 76, 77, 78, 79, 80, 81, 82, 83, 84, 85, 86, 87, 88, 89, 90, 91, 92, 93, 94, 95, 96, 97, 98, 99, 100, 101, 102, 103, 104, 105, 106, 107, 108, 109, 110, 111, 112, 113, 114, 115, 116, 117, 118, 119, 120, 121, 122, 123, 124, 125, 126, 127, 128, 129, 130, 131, 132, 133, 134, 135, 136, 137, 138, 139, 140, 141, 142, 143, 144, 145, 146, 147, 148, 149, 150, 151, 152, 153, 154, 155, 156, 157, 158, 159, 160, 161, 162, 163, 164, 165, 166, 167, 168, 169, 170, 171, 172, 173, 174, 175, 176, 177, 178, 179, 180, 181, 182, 183, 184, 185, 186, 187, 188, 189, 190, 191, 192, 193, 194, 195, 196, 197, 198, 199, 200, 201, 202, 203, 204, 205, 206, 207, 208, 209, 210, 211, 212, 213, 214, 215, 216, 217, 218, 219, 220, 221, 222, 223, 224, 225, 226, 227, 228, 229, 230, 231, 232, 233, 234, 235, 236, 237, 238, 239, 240, 241, 242, 243, 244, 245, 246, 247, 248, 249, 250, 251, 252, 253, 254, 255, 256, 257, 258, 259, 260, 261, 262, 263, 264, 265, 266, 267, 268, 269, 270, 271, 272, 273, 274, 275, 276, 277, 278, 279, 280, 281, 282, 283, 284, 285, 286, 287, 288, 289, 290, 291, 292, 293, 294, 295, 296, 297, 298, 299, 300, 301, 302, 303, 304, 305, 306, 307, 308, 309, 310, 311, 312, 313, 314, 315, 316, 317, 318, 319, 320, 321, 322, 323, 324, 325, 326, 327, 328, 329, 330, 331, 332, 333, 334, 335, 336, 337, 338, 339, 340, 341, 342, 343, 344, 345, 346, 347, 348, 349, 350, 351, 352, 353, 354, 355, 356, 357, 358, 359, 360, 361, 362, 363, 364, 365, 366, 367, 368, 369, 370, 371, 372, 373, 374, 375, 376, 377, 378, 379, 380, 381, 382, 383, 384, 385, 386, 387, 388, 389, 390, 391, 392, 393, 394, 395, 396, 397, 398, 399, 400, 401, 402, 403, 404, 405, 406, 407, 408, 409, 410, 411, 412, 413, 414, 415, 416, 417, 418, 419, 420, 421, 422, 423, 424, 425, 426, 427, 428, 429, 430, 431, 432, 433, 434, 435, 436, 437, 438, 439, 440, 441, 442, 443, 444, 445, 446, 447, 448, 449, 450, 451, 452, 453, 454, 455, 456, 457, 458, 459, 460, 461, 462, 463, 464, 465, 466, 467, 468, 469, 470, 471, 472, 473, 474],
      "AcquisitionTime": ["153306.805000", "153308.295000", "153309.785000", "153311.275000", "153312.765000", "153314.255000", "153315.745000", "153317.235000", "153318.725000", "153320.215000", "153321.705000", "153323.195000", "153324.685000", "153326.175000", "153327.665000", "153329.155000", "153330.645000", "153332.135000", "153333.625000", "153335.115000", "153336.605000", "153338.095000", "153339.585000", "153341.075000", "153342.565000", "153344.055000", "153345.545000", "153347.035000", "153348.525000", "153350.015000", "153351.505000", "153352.995000", "153354.485000", "153355.975000", "153357.465000", "153358.955000", "153400.445000", "153401.935000", "153403.425000", "153404.915000", "153406.405000", "153407.895000", "153409.385000", "153410.875000", "153412.365000", "153413.855000", "153415.345000", "153416.835000", "153418.325000", "153419.815000", "153421.305000", "153422.795000", "153424.285000", "153425.775000", "153427.265000", "153428.755000", "153430.245000", "153431.735000", "153433.225000", "153434.715000", "153436.205000", "153437.695000", "153439.185000", "153440.675000", "153442.165000", "153443.655000", "153445.145000", "153446.635000", "153448.125000", "153449.615000", "153451.105000", "153452.595000", "153454.085000", "153455.575000", "153457.065000", "153458.555000", "153500.045000", "153501.535000", "153503.025000", "153504.515000", "153506.005000", "153507.495000", "153508.985000", "153510.475000", "153511.965000", "153513.455000", "153514.945000", "153516.435000", "153517.925000", "153519.415000", "153520.905000", "153522.395000", "153523.885000", "153525.375000", "153526.865000", "153528.355000", "153529.845000", "153531.335000", "153532.825000", "153534.315000", "153535.805000", "153537.295000", "153538.785000", "153540.275000", "153541.765000", "153543.255000", "153544.745000", "153546.235000", "153547.725000", "153549.215000", "153550.705000", "153552.195000", "153553.685000", "153555.175000", "153556.665000", "153558.155000", "153559.645000", "153601.135000", "153602.625000", "153604.115000", "153605.605000", "153607.095000", "153608.585000", "153610.075000", "153611.565000", "153613.055000", "153614.545000", "153616.035000", "153617.525000", "153619.015000", "153620.505000", "153621.995000", "153623.485000", "153624.975000", "153626.465000", "153627.955000", "153629.445000", "153630.935000", "153632.425000", "153633.915000", "153635.405000", "153636.895000", "153638.385000", "153639.875000", "153641.365000", "153642.855000", "153644.345000", "153645.835000", "153647.325000", "153648.815000", "153650.305000", "153651.795000", "153653.285000", "153654.775000", "153656.265000", "153657.755000", "153659.245000", "153700.735000", "153702.225000", "153703.715000", "153705.205000", "153706.695000", "153708.185000", "153709.675000", "153711.165000", "153712.655000", "153714.145000", "153715.635000", "153717.125000", "153718.615000", "153720.105000", "153721.595000", "153723.085000", "153724.575000", "153726.065000", "153727.555000", "153729.045000", "153730.535000", "153732.025000", "153733.515000", "153735.005000", "153736.495000", "153737.985000", "153739.475000", "153740.965000", "153742.455000", "153743.945000", "153745.435000", "153746.925000", "153748.415000", "153749.905000", "153751.395000", "153752.885000", "153754.375000", "153755.865000", "153757.355000", "153758.845000", "153800.335000", "153801.825000", "153803.315000", "153804.805000", "153806.295000", "153807.785000", "153809.275000", "153810.765000", "153812.255000", "153813.745000", "153815.235000", "153816.725000", "153818.215000", "153819.705000", "153821.195000", "153822.685000", "153824.175000", "153825.665000", "153827.155000", "153828.645000", "153830.135000", "153831.625000", "153833.115000", "153834.605000", "153836.095000", "153837.585000", "153839.075000", "153840.565000", "153842.055000", "153843.545000", "153845.035000", "153846.525000", "153848.015000", "153849.505000", "153850.995000", "153852.485000", "153853.975000", "153855.465000", "153856.955000", "153858.445000", "153859.935000", "153901.425000", "153902.915000", "153904.405000", "153905.895000", "153907.385000", "153908.875000", "153910.365000", "153911.855000", "153913.345000", "153914.835000", "153916.325000", "153917.815000", "153919.305000", "153920.795000", "153922.285000", "153923.775000", "153925.265000", "153926.755000", "153928.245000", "153929.735000", "153931.225000", "153932.715000", "153934.205000", "153935.695000", "153937.185000", "153938.675000", "153940.165000", "153941.655000", "153943.145000", "153944.635000", "153946.125000", "153947.615000", "153949.105000", "153950.595000", "153952.085000", "153953.575000", "153955.065000", "153956.555000", "153958.045000", "153959.535000", "154001.025000", "154002.515000", "154004.005000", "154005.495000", "154006.985000", "154008.475000", "154009.965000", "154011.455000", "154012.945000", "154014.435000", "154015.925000", "154017.415000", "154018.905000", "154020.395000", "154021.885000", "154023.375000", "154024.865000", "154026.355000", "154027.845000", "154029.335000", "154030.825000", "154032.315000", "154033.805000", "154035.295000", "154036.785000", "154038.275000", "154039.765000", "154041.255000", "154042.745000", "154044.235000", "154045.725000", "154047.215000", "154048.705000", "154050.195000", "154051.685000", "154053.175000", "154054.665000", "154056.155000", "154057.645000", "154059.135000", "154100.625000", "154102.115000", "154103.605000", "154105.095000", "154106.585000", "154108.075000", "154109.565000", "154111.055000", "154112.545000", "154114.035000", "154115.525000", "154117.015000", "154118.505000", "154119.995000", "154121.485000", "154122.975000", "154124.465000", "154125.955000", "154127.445000", "154128.935000", "154130.425000", "154131.915000", "154133.405000", "154134.895000", "154136.385000", "154137.875000", "154139.365000", "154140.855000", "154142.345000", "154143.835000", "154145.325000", "154146.815000", "154148.305000", "154149.795000", "154151.285000", "154152.775000", "154154.265000", "154155.755000", "154157.245000", "154158.735000", "154200.225000", "154201.715000", "154203.205000", "154204.695000", "154206.185000", "154207.675000", "154209.165000", "154210.655000", "154212.145000", "154213.635000", "154215.125000", "154216.615000", "154218.105000", "154219.595000", "154221.085000", "154222.575000", "154224.065000", "154225.555000", "154227.045000", "154228.535000", "154230.025000", "154231.515000", "154233.005000", "154234.495000", "154235.985000", "154237.475000", "154238.965000", "154240.455000", "154241.945000", "154243.435000", "154244.925000", "154246.415000", "154247.905000", "154249.395000", "154250.885000", "154252.375000", "154253.865000", "154255.355000", "154256.845000", "154258.335000", "154259.825000", "154301.315000", "154302.805000", "154304.295000", "154305.785000", "154307.275000", "154308.765000", "154310.255000", "154311.745000", "154313.235000", "154314.725000", "154316.215000", "154317.705000", "154319.195000", "154320.685000", "154322.175000", "154323.665000", "154325.155000", "154326.645000", "154328.135000", "154329.625000", "154331.115000", "154332.605000", "154334.095000", "154335.585000", "154337.075000", "154338.565000", "154340.055000", "154341.545000", "154343.035000", "154344.525000", "154346.015000", "154347.505000", "154348.995000", "154350.485000", "154351.975000", "154353.465000", "154354.955000", "154356.445000", "154357.935000", "154359.425000", "154400.915000", "154402.405000", "154403.895000", "154405.385000", "154406.875000", "154408.365000", "154409.855000", "154411.345000", "154412.835000", "154414.325000", "154415.815000", "154417.305000", "154418.795000", "154420.285000", "154421.775000", "154423.265000", "154424.755000", "154426.245000", "154427.735000", "154429.225000", "154430.715000", "154432.205000", "154433.695000", "154435.185000", "154436.675000", "154438.165000", "154439.655000", "154441.145000", "154442.635000", "154444.125000", "154445.615000", "154447.105000", "154448.595000", "154450.085000", "154451.575000"],
      "ContentTime": ["153428.307000", "153428.310000", "153428.313000", "153428.316000", "153428.326000", "153428.329000", "153428.332000", "153428.335000", "153428.338000", "153428.341000", "153428.344000", "153428.347000", "153428.350000", "153428.352000", "153428.355000", "153428.358000", "153428.361000", "153428.364000", "153428.367000", "153428.370000", "153428.373000", "153428.376000", "153428.379000", "153428.382000", "153428.385000", "153428.387000", "153428.390000", "153448.282000", "153448.285000", "153448.288000", "153448.291000", "153448.294000", "153448.297000", "153448.300000", "153448.303000", "153448.306000", "153448.309000", "153448.312000", "153448.329000", "153448.332000", "153448.335000", "153448.338000", "153448.341000", "153448.343000", "153448.346000", "153448.349000", "153448.352000", "153508.282000", "153508.285000", "153508.288000", "153508.291000", "153508.294000", "153508.297000", "153508.300000", "153508.302000", "153508.305000", "153508.308000", "153508.312000", "153508.315000", "153508.318000", "153508.321000", "153508.324000", "153508.328000", "153508.331000", "153508.334000", "153508.337000", "153508.340000", "153508.343000", "153528.282000", "153528.285000", "153528.288000", "153528.291000", "153528.294000", "153528.297000", "153528.299000", "153528.302000", "153528.305000", "153528.308000", "153528.311000", "153528.314000", "153528.317000", "153528.320000", "153528.323000", "153528.326000", "153528.329000", "153528.331000", "153528.334000", "153528.337000", "153608.282000", "153608.285000", "153608.288000", "153608.291000", "153608.294000", "153608.297000", "153608.300000", "153608.303000", "153608.305000", "153608.308000", "153608.311000", "153608.314000", "153608.317000", "153608.320000", "153608.323000", "153608.326000", "153608.329000", "153608.332000", "153608.335000", "153608.338000", "153608.341000", "153608.344000", "153608.347000", "153608.350000", "153608.353000", "153608.356000", "153608.362000", "153608.364000", "153608.367000", "153608.370000", "153608.373000", "153608.376000", "153608.379000", "153648.282000", "153648.285000", "153648.288000", "153648.291000", "153648.294000", "153648.297000", "153648.300000", "153648.303000", "153648.306000", "153648.309000", "153648.320000", "153648.322000", "153648.325000", "153648.328000", "153648.331000", "153648.334000", "153648.337000", "153648.340000", "153648.343000", "153648.346000", "153648.349000", "153648.351000", "153648.354000", "153648.357000", "153648.360000", "153648.363000", "153648.366000", "153728.282000", "153728.285000", "153728.288000", "153728.291000", "153728.294000", "153728.297000", "153728.300000", "153728.303000", "153728.306000", "153728.309000", "153728.312000", "153728.315000", "153728.317000", "153728.320000", "153728.323000", "153728.326000", "153728.329000", "153728.332000", "153728.335000", "153728.338000", "153728.341000", "153728.344000", "153728.347000", "153728.350000", "153728.352000", "153728.355000", "153808.282000", "153808.285000", "153808.288000", "153808.291000", "153808.294000", "153808.297000", "153808.300000", "153808.303000", "153808.306000", "153808.309000", "153808.311000", "153808.314000", "153808.317000", "153808.320000", "153808.323000", "153808.326000", "153808.329000", "153808.332000", "153808.335000", "153808.338000", "153808.341000", "153808.344000", "153808.347000", "153808.350000", "153808.353000", "153808.356000", "153808.359000", "153848.283000", "153848.286000", "153848.289000", "153848.292000", "153848.295000", "153848.298000", "153848.301000", "153848.309000", "153848.311000", "153848.314000", "153848.317000", "153848.320000", "153848.323000", "153848.326000", "153848.329000", "153848.332000", "153848.335000", "153848.338000", "153848.341000", "153848.344000", "153848.347000", "153848.350000", "153848.353000", "153848.356000", "153848.358000", "153848.361000", "153848.364000", "153928.282000", "153928.285000", "153928.288000", "153928.291000", "153928.294000", "153928.297000", "153928.309000", "153928.312000", "153928.314000", "153928.317000", "153928.320000", "153928.323000", "153928.326000", "153928.329000", "153928.332000", "153928.335000", "153928.338000", "153928.341000", "153928.344000", "153928.347000", "153928.350000", "153928.353000", "153928.356000", "153928.358000", "153928.361000", "153928.364000", "153928.367000", "154008.282000", "154008.285000", "154008.288000", "154008.291000", "154008.294000", "154008.297000", "154008.300000", "154008.303000", "154008.306000", "154008.309000", "154008.312000", "154008.314000", "154008.317000", "154008.320000", "154008.323000", "154008.326000", "154008.329000", "154008.332000", "154008.335000", "154008.338000", "154008.341000", "154008.344000", "154008.347000", "154008.350000", "154008.353000", "154008.355000", "154008.358000", "154048.282000", "154048.285000", "154048.288000", "154048.291000", "154048.294000", "154048.297000", "154048.300000", "154048.303000", "154048.306000", "154048.309000", "154048.312000", "154048.315000", "154048.317000", "154048.320000", "154048.323000", "154048.326000", "154048.329000", "154048.332000", "154048.335000", "154048.338000", "154048.341000", "154048.344000", "154048.347000", "154048.350000", "154048.353000", "154048.355000", "154048.358000", "154128.282000", "154128.285000", "154128.288000", "154128.291000", "154128.300000", "154128.303000", "154128.306000", "154128.309000", "154128.312000", "154128.315000", "154128.318000", "154128.321000", "154128.324000", "154128.327000", "154128.330000", "154128.333000", "154128.336000", "154128.339000", "154128.342000", "154128.344000", "154128.347000", "154128.350000", "154128.353000", "154128.356000", "154128.359000", "154128.362000", "154208.282000", "154208.285000", "154208.288000", "154208.291000", "154208.294000", "154208.297000", "154208.300000", "154208.303000", "154208.306000", "154208.309000", "154208.312000", "154208.315000", "154208.318000", "154208.320000", "154208.323000", "154208.326000", "154208.329000", "154208.332000", "154208.335000", "154208.338000", "154208.341000", "154208.344000", "154208.347000", "154208.350000", "154208.353000", "154208.356000", "154208.358000", "154248.282000", "154248.285000", "154248.288000", "154248.291000", "154248.295000", "154248.298000", "154248.301000", "154248.304000", "154248.307000", "154248.310000", "154248.313000", "154248.316000", "154248.319000", "154248.322000", "154248.325000", "154248.328000", "154248.331000", "154248.333000", "154248.336000", "154248.339000", "154248.342000", "154248.345000", "154248.348000", "154248.351000", "154248.354000", "154248.357000", "154248.359000", "154328.283000", "154328.286000", "154328.289000", "154328.292000", "154328.295000", "154328.298000", "154328.301000", "154328.304000", "154328.307000", "154328.310000", "154328.313000", "154328.316000", "154328.319000", "154328.322000", "154328.325000", "154328.327000", "154328.330000", "154328.333000", "154328.336000", "154328.339000", "154328.342000", "154328.345000", "154328.348000", "154328.351000", "154328.354000", "154328.357000", "154328.360000", "154408.282000", "154408.285000", "154408.298000", "154408.301000", "154408.304000", "154408.307000", "154408.310000", "154408.313000", "154408.316000", "154408.319000", "154408.322000", "154408.325000", "154408.327000", "154408.331000", "154408.333000", "154408.337000", "154408.339000", "154408.343000", "154408.345000", "154408.348000", "154408.351000", "154408.354000", "154408.357000", "154408.360000", "154408.363000", "154408.366000", "154408.369000", "154448.282000", "154448.285000", "154448.288000", "154448.291000", "154448.294000", "154448.297000", "154448.300000", "154448.303000", "154448.306000", "154448.309000", "154448.311000", "154448.314000", "154448.317000", "154448.320000", "154448.323000", "154448.326000", "154448.329000", "154448.332000", "154448.335000", "154448.338000", "154448.341000", "154448.344000", "154448.347000", "154448.350000", "154448.353000", "154448.356000", "154448.359000", "154454.816000", "154454.819000", "154454.822000", "154454.825000"],
