{
  "AcquisitionMatrixPE": 104,
  "AcquisitionNumber": 1,
  "AcquisitionTime": "10:56:2.517500",
  "BandwidthPerPixelPhaseEncode": 17.17,
  "BaseResolution": 104,
  "BodyPartExamined": "BRAIN",
  "CoilString": "HC1-7;NC1_2",
  "ConsistencyInfo": "N4_VE11C_LATEST_20160120",
  "ConversionSoftware": "dcm2niix",
  "ConversionSoftwareVersion": "v1.0.20190902",
  "DerivedVendorReportedEchoSpacing": 0.000560011,
  "DeviceSerialNumber": "167006",
  "DwellTime": 2.1e-06,
  "EchoTime": 0.037,
  "EchoTrainLength": 104,
  "EffectiveEchoSpacing": 0.000560011,
  "FlipAngle": 52,
  "ImageComments": "Unaliased_MB4_PE3_LB",
  "ImageOrientationPatientDICOM": [0.999595, 0.0126376, 0.025504, 0.00209351, 0.860959, -0.50867],
  "ImageType": [
    "ORIGINAL",
    "PRIMARY",
    "M",
    "MB",
    "ND",
    "MOSAIC"
],
  "ImagingFrequency": 123.259,
  "InPlanePhaseEncodingDirectionDICOM": "COL",
  "InstitutionAddress": "Chemin_Queen-Mary_4565_Montreal_District_CA_H3W_1W5",
  "InstitutionName": "IUGM",
  "InstitutionalDepartmentName": "Department",
  "MRAcquisitionType": "2D",
  "MagneticFieldStrength": 3,
  "Manufacturer": "Siemens",
  "ManufacturersModelName": "Prisma_fit",
  "Modality": "MR",
  "MultibandAccelerationFactor": 4,
  "PartialFourier": 1,
  "PatientPosition": "HFS",
  "PercentPhaseFOV": 100,
  "PhaseEncodingDirection": "j",
  "PhaseEncodingSteps": 104,
  "PhaseResolution": 1,
  "PixelBandwidth": 2290,
  "ProcedureStepDescription": "games_shinobi",
  "ProtocolName": "func_task-shinobi_run-2",
  "PulseSequenceDetails": "%CustomerSeq%_cmrr_mbep2d_bold",
  "ReceiveCoilActiveElements": "HC1-7;NC1,2",
  "ReceiveCoilName": "HeadNeck_64",
  "ReconMatrixPE": 104,
  "RepetitionTime": 1.49,
  "SAR": 0.0357268,
  "ScanOptions": "FS",
  "ScanningSequence": "EP",
  "SequenceName": "epfid2d1_104",
  "SequenceVariant": "SK_SS",
  "SeriesDescription": "func_task-shinobi_run-2",
  "SeriesNumber": 11,
  "ShimSetting": [620, -7204, -8869, 340, -24, -160, 0, -29],
  "SliceThickness": 2,
  "SliceTiming": [0, 0.7825, 0.0975, 0.88, 0.195, 0.98, 0.2925, 1.0775, 0.39, 1.175, 0.49, 1.2725, 0.5875, 1.37, 0.685, 0, 0.7825, 0.0975, 0.88, 0.195, 0.98, 0.2925, 1.0775, 0.39, 1.175, 0.49, 1.2725, 0.5875, 1.37, 0.685, 0, 0.7825, 0.0975, 0.88, 0.195, 0.98, 0.2925, 1.0775, 0.39, 1.175, 0.49, 1.2725, 0.5875, 1.37, 0.685, 0, 0.7825, 0.0975, 0.88, 0.195, 0.98, 0.2925, 1.0775, 0.39, 1.175, 0.49, 1.2725, 0.5875, 1.37, 0.685],
  "SoftwareVersions": "syngo_MR_E11",
  "SpacingBetweenSlices": 2,
  "StationName": "MRC35049",
  "TaskName": "shinobi",
  "TotalReadoutTime": 0.0576811,
  "TxRefAmp": 248.497,
  "WipMemBlock": "833bae8f-939f-45f7-aad3-efdeff129cd6||Sequence: R016 ve11c/master r/e634e98; Dec 19 2017 11:00:25 by eja",
  "dcmmeta_affine": [
    [-1.9991896152496338, 0.004187016282230616, 0.05677250027656555, 105.9735336303711],
    [-0.02527521178126335, 1.7219176292419434, -1.0170354843139648, -49.55565643310547],
    [0.0510079562664032, 1.0173407793045044, 1.7211670875549316, -89.59184265136719],
    [0.0, 0.0, 0.0, 1.0]
],
  "dcmmeta_reorient_transform": [
    [0.0, -1.0, 0.0, 103.0],
    [1.0, 0.0, 0.0, 0.0],
    [0.0, 0.0, 1.0, 0.0],
    [0.0, 0.0, 0.0, 1.0]
],
  "dcmmeta_shape": [104, 104, 60, 454],
  "dcmmeta_slice_dim": 2,
  "dcmmeta_version": 0.6,
  "global": {
    "const": {
      "AcquisitionMatrix": [104, 0, 0, 104],
      "AngioFlag": "N",
      "BitsAllocated": 16,
      "BitsStored": 16,
      "BodyPartExamined": "BRAIN",
      "Columns": 832,
      "EchoNumbers": 1,
      "EchoTime": 37.0,
      "EchoTrainLength": 104,
      "FlipAngle": 52.0,
      "HighBit": 15,
      "ImageOrientationPatient": [0.99959483694628, 0.0126376062317, 0.0255039773186, 0.00209350825069, 0.86095879392359, -0.5086703966114],
      "ImagePositionPatient": [-835.63391310378, -763.7800351294, 366.93941477011],
      "ImageType": [
        "ORIGINAL",
        "PRIMARY",
        "M",
        "MB",
        "ND",
        "MOSAIC"
],
      "ImagedNucleus": "1H",
      "ImagingFrequency": 123.259049,
      "InPlanePhaseEncodingDirection": "COL",
      "MRAcquisitionType": "2D",
      "MagneticFieldStrength": 3.0,
      "Manufacturer": "SIEMENS",
      "ManufacturerModelName": "Prisma_fit",
      "Modality": "MR",
      "NumberOfAverages": 1.0,
      "NumberOfPhaseEncodingSteps": 104,
      "PercentPhaseFieldOfView": 100.0,
      "PercentSampling": 100.0,
      "PerformedProcedureStepStartTime": "103418.766000",
      "PhotometricInterpretation": "MONOCHROME2",
      "PixelBandwidth": 2290.0,
      "PixelRepresentation": 0,
      "PixelSpacing": [2.0, 2.0],
      "ProtocolName": "func_task-shinobi_run-2",
      "RepetitionTime": 1490.0,
      "Rows": 832,
      "SAR": 0.03572683930972,
      "SamplesPerPixel": 1,
      "ScanOptions": "FS",
      "ScanningSequence": "EP",
      "SequenceName": "epfid2d1_104",
      "SequenceVariant": [
        "SK",
        "SS"
],
      "SeriesDescription": "func_task-shinobi_run-2",
      "SeriesNumber": 11,
      "SeriesTime": "105727.990000",
      "SliceLocation": -48.893141078144,
      "SliceThickness": 2.0,
      "SmallestImagePixelValue": 0,
      "SoftwareVersions": "syngo MR E11",
      "SpacingBetweenSlices": 2.0000000742316,
      "SpecificCharacterSet": "ISO_IR 100",
      "StudyID": "1",
      "StudyTime": "103418.679000",
      "TransmitCoilName": "Body",
      "VariableFlipAngleFlag": "N",
      "WindowCenterWidthExplanation": "Algo1",
      "dBdt": 0.0},
    "slices": {}
  },
  "time": {
    "samples": {
      "AcquisitionNumber": [1, 2, 3, 4, 5, 6, 7, 8, 9, 10, 11, 12, 13, 14, 15, 16, 17, 18, 19, 20, 21, 22, 23, 24, 25, 26, 27, 28, 29, 30, 31, 32, 33, 34, 35, 36, 37, 38, 39, 40, 41, 42, 43, 44, 45, 46, 47, 48, 49, 50, 51, 52, 53, 54, 55, 56, 57, 58, 59, 60, 61, 62, 63, 64, 65, 66, 67, 68, 69, 70, 71, 72, 73, 74, 75, 76, 77, 78, 79, 80, 81, 82, 83, 84, 85, 86, 87, 88, 89, 90, 91, 92, 93, 94, 95, 96, 97, 98, 99, 100, 101, 102, 103, 104, 105, 106, 107, 108, 109, 110, 111, 112, 113, 114, 115, 116, 117, 118, 119, 120, 121, 122, 123, 124, 125, 126, 127, 128, 129, 130, 131, 132, 133, 134, 135, 136, 137, 138, 139, 140, 141, 142, 143, 144, 145, 146, 147, 148, 149, 150, 151, 152, 153, 154, 155, 156, 157, 158, 159, 160, 161, 162, 163, 164, 165, 166, 167, 168, 169, 170, 171, 172, 173, 174, 175, 176, 177, 178, 179, 180, 181, 182, 183, 184, 185, 186, 187, 188, 189, 190, 191, 192, 193, 194, 195, 196, 197, 198, 199, 200, 201, 202, 203, 204, 205, 206, 207, 208, 209, 210, 211, 212, 213, 214, 215, 216, 217, 218, 219, 220, 221, 222, 223, 224, 225, 226, 227, 228, 229, 230, 231, 232, 233, 234, 235, 236, 237, 238, 239, 240, 241, 242, 243, 244, 245, 246, 247, 248, 249, 250, 251, 252, 253, 254, 255, 256, 257, 258, 259, 260, 261, 262, 263, 264, 265, 266, 267, 268, 269, 270, 271, 272, 273, 274, 275, 276, 277, 278, 279, 280, 281, 282, 283, 284, 285, 286, 287, 288, 289, 290, 291, 292, 293, 294, 295, 296, 297, 298, 299, 300, 301, 302, 303, 304, 305, 306, 307, 308, 309, 310, 311, 312, 313, 314, 315, 316, 317, 318, 319, 320, 321, 322, 323, 324, 325, 326, 327, 328, 329, 330, 331, 332, 333, 334, 335, 336, 337, 338, 339, 340, 341, 342, 343, 344, 345, 346, 347, 348, 349, 350, 351, 352, 353, 354, 355, 356, 357, 358, 359, 360, 361, 362, 363, 364, 365, 366, 367, 368, 369, 370, 371, 372, 373, 374, 375, 376, 377, 378, 379, 380, 381, 382, 383, 384, 385, 386, 387, 388, 389, 390, 391, 392, 393, 394, 395, 396, 397, 398, 399, 400, 401, 402, 403, 404, 405, 406, 407, 408, 409, 410, 411, 412, 413, 414, 415, 416, 417, 418, 419, 420, 421, 422, 423, 424, 425, 426, 427, 428, 429, 430, 431, 432, 433, 434, 435, 436, 437, 438, 439, 440, 441, 442, 443, 444, 445, 446, 447, 448, 449, 450, 451, 452, 453, 454],
      "AcquisitionTime": ["105602.517500", "105604.007500", "105605.497500", "105606.987500", "105608.477500", "105609.967500", "105611.457500", "105612.947500", "105614.437500", "105615.927500", "105617.417500", "105618.907500", "105620.397500", "105621.887500", "105623.377500", "105624.867500", "105626.357500", "105627.847500", "105629.337500", "105630.827500", "105632.317500", "105633.807500", "105635.297500", "105636.787500", "105638.277500", "105639.767500", "105641.257500", "105642.747500", "105644.237500", "105645.727500", "105647.217500", "105648.707500", "105650.197500", "105651.687500", "105653.177500", "105654.667500", "105656.157500", "105657.647500", "105659.137500", "105700.627500", "105702.117500", "105703.607500", "105705.097500", "105706.587500", "105708.077500", "105709.567500", "105711.057500", "105712.547500", "105714.037500", "105715.527500", "105717.017500", "105718.507500", "105719.997500", "105721.487500", "105722.977500", "105724.467500", "105725.957500", "105727.447500", "105728.937500", "105730.427500", "105731.917500", "105733.407500", "105734.897500", "105736.387500", "105737.877500", "105739.367500", "105740.857500", "105742.347500", "105743.837500", "105745.327500", "105746.817500", "105748.307500", "105749.797500", "105751.287500", "105752.777500", "105754.267500", "105755.757500", "105757.247500", "105758.737500", "105800.227500", "105801.717500", "105803.207500", "105804.697500", "105806.187500", "105807.677500", "105809.167500", "105810.657500", "105812.147500", "105813.637500", "105815.127500", "105816.617500", "105818.107500", "105819.597500", "105821.087500", "105822.577500", "105824.067500", "105825.557500", "105827.047500", "105828.537500", "105830.027500", "105831.517500", "105833.007500", "105834.497500", "105835.987500", "105837.477500", "105838.967500", "105840.457500", "105841.947500", "105843.437500", "105844.927500", "105846.417500", "105847.907500", "105849.397500", "105850.887500", "105852.377500", "105853.867500", "105855.357500", "105856.847500", "105858.337500", "105859.827500", "105901.317500", "105902.807500", "105904.297500", "105905.787500", "105907.277500", "105908.767500", "105910.257500", "105911.747500", "105913.237500", "105914.727500", "105916.217500", "105917.707500", "105919.197500", "105920.687500", "105922.177500", "105923.667500", "105925.157500", "105926.647500", "105928.137500", "105929.627500", "105931.117500", "105932.607500", "105934.097500", "105935.587500", "105937.077500", "105938.567500", "105940.057500", "105941.547500", "105943.037500", "105944.527500", "105946.017500", "105947.507500", "105948.997500", "105950.487500", "105951.977500", "105953.467500", "105954.957500", "105956.447500", "105957.937500", "105959.427500", "110000.917500", "110002.407500", "110003.897500", "110005.387500", "110006.877500", "110008.367500", "110009.857500", "110011.347500", "110012.837500", "110014.327500", "110015.817500", "110017.307500", "110018.797500", "110020.287500", "110021.777500", "110023.267500", "110024.757500", "110026.247500", "110027.737500", "110029.227500", "110030.717500", "110032.207500", "110033.697500", "110035.187500", "110036.677500", "110038.167500", "110039.657500", "110041.147500", "110042.637500", "110044.127500", "110045.617500", "110047.107500", "110048.597500", "110050.087500", "110051.577500", "110053.067500", "110054.557500", "110056.047500", "110057.537500", "110059.027500", "110100.517500", "110102.007500", "110103.497500", "110104.987500", "110106.477500", "110107.967500", "110109.457500", "110110.947500", "110112.437500", "110113.927500", "110115.417500", "110116.907500", "110118.397500", "110119.887500", "110121.377500", "110122.867500", "110124.357500", "110125.847500", "110127.337500", "110128.827500", "110130.317500", "110131.807500", "110133.297500", "110134.787500", "110136.277500", "110137.767500", "110139.257500", "110140.747500", "110142.237500", "110143.727500", "110145.217500", "110146.707500", "110148.197500", "110149.687500", "110151.177500", "110152.667500", "110154.157500", "110155.647500", "110157.137500", "110158.627500", "110200.117500", "110201.607500", "110203.097500", "110204.587500", "110206.077500", "110207.567500", "110209.057500", "110210.547500", "110212.037500", "110213.527500", "110215.017500", "110216.507500", "110217.997500", "110219.487500", "110220.977500", "110222.467500", "110223.957500", "110225.447500", "110226.937500", "110228.427500", "110229.917500", "110231.407500", "110232.897500", "110234.387500", "110235.877500", "110237.367500", "110238.857500", "110240.347500", "110241.837500", "110243.327500", "110244.817500", "110246.307500", "110247.797500", "110249.287500", "110250.777500", "110252.267500", "110253.757500", "110255.247500", "110256.737500", "110258.227500", "110259.717500", "110301.207500", "110302.697500", "110304.187500", "110305.677500", "110307.167500", "110308.657500", "110310.147500", "110311.637500", "110313.127500", "110314.617500", "110316.107500", "110317.597500", "110319.087500", "110320.577500", "110322.067500", "110323.557500", "110325.047500", "110326.537500", "110328.027500", "110329.517500", "110331.007500", "110332.497500", "110333.987500", "110335.477500", "110336.967500", "110338.457500", "110339.947500", "110341.437500", "110342.927500", "110344.417500", "110345.907500", "110347.397500", "110348.887500", "110350.377500", "110351.867500", "110353.357500", "110354.847500", "110356.337500", "110357.827500", "110359.317500", "110400.807500", "110402.297500", "110403.787500", "110405.277500", "110406.767500", "110408.257500", "110409.747500", "110411.237500", "110412.727500", "110414.217500", "110415.707500", "110417.197500", "110418.687500", "110420.177500", "110421.667500", "110423.157500", "110424.647500", "110426.137500", "110427.627500", "110429.117500", "110430.607500", "110432.097500", "110433.587500", "110435.077500", "110436.567500", "110438.057500", "110439.547500", "110441.037500", "110442.527500", "110444.017500", "110445.507500", "110446.997500", "110448.487500", "110449.977500", "110451.467500", "110452.957500", "110454.447500", "110455.937500", "110457.427500", "110458.917500", "110500.407500", "110501.897500", "110503.387500", "110504.877500", "110506.367500", "110507.857500", "110509.347500", "110510.837500", "110512.327500", "110513.817500", "110515.307500", "110516.797500", "110518.287500", "110519.777500", "110521.267500", "110522.757500", "110524.247500", "110525.737500", "110527.227500", "110528.717500", "110530.207500", "110531.697500", "110533.187500", "110534.677500", "110536.167500", "110537.657500", "110539.147500", "110540.637500", "110542.127500", "110543.617500", "110545.107500", "110546.597500", "110548.087500", "110549.577500", "110551.067500", "110552.557500", "110554.047500", "110555.537500", "110557.027500", "110558.517500", "110600.007500", "110601.497500", "110602.987500", "110604.477500", "110605.967500", "110607.457500", "110608.947500", "110610.437500", "110611.927500", "110613.417500", "110614.907500", "110616.397500", "110617.887500", "110619.377500", "110620.867500", "110622.357500", "110623.847500", "110625.337500", "110626.827500", "110628.317500", "110629.807500", "110631.297500", "110632.787500", "110634.277500", "110635.767500", "110637.257500", "110638.747500", "110640.237500", "110641.727500", "110643.217500", "110644.707500", "110646.197500", "110647.687500", "110649.177500", "110650.667500", "110652.157500", "110653.647500", "110655.137500", "110656.627500", "110658.117500", "110659.607500", "110701.097500", "110702.587500", "110704.077500", "110705.567500", "110707.057500", "110708.547500", "110710.037500", "110711.527500", "110713.017500", "110714.507500", "110715.997500", "110717.487500"],
      "ContentTime": ["105727.995000", "105728.000000", "105728.003000", "105728.006000", "105728.009000", "105728.018000", "105728.021000", "105728.024000", "105728.027000", "105728.030000", "105728.033000", "105728.036000", "105728.054000", "105728.057000", "105728.060000", "105728.070000", "105728.072000", "105728.075000", "105728.078000", "105728.081000", "105728.084000", "105728.094000", "105728.097000", "105728.100000", "105728.103000", "105728.106000", "105728.108000", "105728.111000", "105728.114000", "105728.117000", "105728.120000", "105728.123000", "105747.947000", "105747.950000", "105747.953000", "105747.956000", "105747.959000", "105747.962000", "105747.965000", "105747.968000", "105747.971000", "105747.974000", "105747.977000", "105747.980000", "105747.983000", "105747.986000", "105747.989000", "105747.992000", "105747.995000", "105747.997000", "105748.000000", "105748.003000", "105748.006000", "105807.947000", "105807.950000", "105807.953000", "105807.956000", "105807.959000", "105807.962000", "105807.965000", "105807.968000", "105807.971000", "105807.974000", "105807.977000", "105807.980000", "105807.982000", "105807.985000", "105807.988000", "105807.991000", "105807.994000", "105807.997000", "105808.000000", "105808.003000", "105827.947000", "105827.950000", "105827.953000", "105827.956000", "105827.959000", "105827.962000", "105827.965000", "105827.968000", "105827.971000", "105827.974000", "105827.977000", "105827.980000", "105827.982000", "105827.985000", "105827.988000", "105827.999000", "105828.002000", "105828.005000", "105828.008000", "105828.011000", "105907.947000", "105907.950000", "105907.953000", "105907.957000", "105907.960000", "105907.964000", "105907.967000", "105907.970000", "105907.973000", "105907.976000", "105907.979000", "105907.982000", "105907.985000", "105907.988000", "105907.991000", "105907.994000", "105907.997000", "105908.001000", "105908.004000", "105908.006000", "105908.009000", "105908.012000", "105908.015000", "105908.018000", "105908.021000", "105908.024000", "105908.027000", "105908.030000", "105908.040000", "105908.043000", "105947.946000", "105947.949000", "105947.952000", "105947.955000", "105947.958000", "105947.961000", "105947.964000", "105947.967000", "105947.970000", "105947.973000", "105947.976000", "105947.979000", "105947.982000", "105947.985000", "105947.988000", "105947.991000", "105947.993000", "105947.996000", "105947.999000", "105948.002000", "105948.005000", "105948.008000", "105948.011000", "105948.014000", "105948.017000", "105948.020000", "105948.023000", "110027.947000", "110027.950000", "110027.953000", "110027.956000", "110027.959000", "110027.962000", "110027.965000", "110027.968000", "110027.971000", "110027.974000", "110027.977000", "110027.980000", "110027.983000", "110027.986000", "110027.989000", "110027.992000", "110027.994000", "110027.997000", "110028.001000", "110028.004000", "110028.007000", "110028.010000", "110028.013000", "110028.016000", "110028.019000", "110028.022000", "110028.025000", "110107.947000", "110107.950000", "110107.953000", "110107.956000", "110107.959000", "110107.962000", "110107.965000", "110107.968000", "110107.971000", "110107.974000", "110107.977000", "110107.980000", "110107.983000", "110107.986000", "110107.989000", "110107.992000", "110107.995000", "110107.998000", "110108.001000", "110108.004000", "110108.007000", "110108.010000", "110108.013000", "110108.016000", "110108.019000", "110108.022000", "110108.025000", "110147.946000", "110147.949000", "110147.952000", "110147.955000", "110147.958000", "110147.961000", "110147.964000", "110147.967000", "110147.970000", "110147.985000", "110147.988000", "110147.991000", "110147.994000", "110147.997000", "110148.001000", "110148.004000", "110148.007000", "110148.010000", "110148.013000", "110148.016000", "110148.019000", "110148.022000", "110148.025000", "110148.028000", "110148.031000", "110148.034000", "110148.037000", "110227.947000", "110227.950000", "110227.953000", "110227.956000", "110227.959000", "110227.962000", "110227.965000", "110227.968000", "110227.971000", "110227.974000", "110227.977000", "110227.980000", "110227.983000", "110227.986000", "110227.988000", "110227.992000", "110227.995000", "110227.997000", "110228.000000", "110228.011000", "110228.013000", "110228.016000", "110228.019000", "110228.023000", "110228.025000", "110228.028000", "110228.031000", "110307.947000", "110307.950000", "110307.953000", "110307.956000", "110307.959000", "110307.962000", "110307.965000", "110307.968000", "110307.971000", "110307.974000", "110307.976000", "110307.979000", "110307.982000", "110307.985000", "110307.988000", "110307.991000", "110307.994000", "110308.003000", "110308.006000", "110308.009000", "110308.012000", "110308.015000", "110308.018000", "110308.021000", "110308.024000", "110308.027000", "110308.030000", "110347.946000", "110347.949000", "110347.952000", "110347.955000", "110347.958000", "110347.961000", "110347.964000", "110347.967000", "110347.970000", "110347.973000", "110347.976000", "110347.979000", "110347.982000", "110347.985000", "110347.988000", "110347.991000", "110347.994000", "110347.997000", "110348.000000", "110348.003000", "110348.006000", "110348.009000", "110348.012000", "110348.015000", "110348.018000", "110348.020000", "110407.946000", "110407.949000", "110407.952000", "110407.955000", "110407.958000", "110407.961000", "110407.964000", "110407.967000", "110407.970000", "110407.973000", "110407.976000", "110407.979000", "110407.982000", "110407.985000", "110447.947000", "110447.950000", "110447.953000", "110447.956000", "110447.959000", "110447.962000", "110447.965000", "110447.968000", "110447.971000", "110447.974000", "110447.977000", "110447.980000", "110447.983000", "110447.986000", "110447.989000", "110447.991000", "110447.995000", "110447.997000", "110448.000000", "110448.003000", "110448.006000", "110448.009000", "110448.012000", "110448.015000", "110448.018000", "110448.021000", "110448.024000", "110527.947000", "110527.950000", "110527.953000", "110527.956000", "110527.959000", "110527.962000", "110527.965000", "110527.968000", "110527.971000", "110527.974000", "110527.977000", "110527.980000", "110527.983000", "110527.986000", "110527.989000", "110527.992000", "110527.995000", "110527.998000", "110528.002000", "110528.005000", "110528.008000", "110528.011000", "110528.013000", "110528.031000", "110528.033000", "110528.036000", "110528.039000", "110607.946000", "110607.949000", "110607.952000", "110607.955000", "110607.958000", "110607.961000", "110607.964000", "110607.967000", "110607.970000", "110607.973000", "110607.976000", "110607.979000", "110607.982000", "110607.985000", "110607.988000", "110607.991000", "110607.994000", "110607.997000", "110608.001000", "110608.004000", "110608.007000", "110608.010000", "110608.013000", "110608.016000", "110608.019000", "110608.022000", "110647.946000", "110647.949000", "110647.952000", "110647.955000", "110647.958000", "110647.961000", "110647.964000", "110647.967000", "110647.970000", "110647.973000", "110647.976000", "110647.979000", "110647.982000", "110647.985000", "110647.988000", "110647.991000", "110647.994000", "110647.996000", "110648.000000", "110648.003000", "110648.006000", "110648.009000", "110648.012000", "110648.015000", "110648.018000", "110648.021000", "110648.024000", "110720.956000", "110720.959000", "110720.962000", "110720.965000", "110720.968000", "110720.971000", "110720.974000", "110720.977000", "110720.980000", "110720.983000", "110720.986000", "110720.989000", "110720.992000", "110720.995000", "110720.998000", "110721.001000", "110721.004000", "110721.007000", "110721.010000", "110721.013000", "110721.016000", "110721.019000"],
