{
  "AcquisitionMatrixPE": 104,
  "AcquisitionNumber": 1,
  "AcquisitionTime": "11:21:52.372500",
  "BandwidthPerPixelPhaseEncode": 17.17,
  "BaseResolution": 104,
  "BodyPartExamined": "BRAIN",
  "CoilString": "HC1-7;NC1_2",
  "ConsistencyInfo": "N4_VE11C_LATEST_20160120",
  "ConversionSoftware": "dcm2niix",
  "ConversionSoftwareVersion": "v1.0.20190902",
  "DerivedVendorReportedEchoSpacing": 0.000560011,
  "DeviceSerialNumber": "167006",
  "DwellTime": 2.1e-06,
  "EchoTime": 0.037,
  "EchoTrainLength": 104,
  "EffectiveEchoSpacing": 0.000560011,
  "FlipAngle": 52,
  "ImageComments": "Unaliased_MB4_PE3_LB",
  "ImageOrientationPatientDICOM": [0.999595, 0.0126376, 0.025504, 0.00209351, 0.860959, -0.50867],
  "ImageType": [
    "ORIGINAL",
    "PRIMARY",
    "M",
    "MB",
    "ND",
    "MOSAIC"
],
  "ImagingFrequency": 123.259,
  "InPlanePhaseEncodingDirectionDICOM": "COL",
  "InstitutionAddress": "Chemin_Queen-Mary_4565_Montreal_District_CA_H3W_1W5",
  "InstitutionName": "IUGM",
  "InstitutionalDepartmentName": "Department",
  "MRAcquisitionType": "2D",
  "MagneticFieldStrength": 3,
  "Manufacturer": "Siemens",
  "ManufacturersModelName": "Prisma_fit",
  "Modality": "MR",
  "MultibandAccelerationFactor": 4,
  "PartialFourier": 1,
  "PatientPosition": "HFS",
  "PercentPhaseFOV": 100,
  "PhaseEncodingDirection": "j",
  "PhaseEncodingSteps": 104,
  "PhaseResolution": 1,
  "PixelBandwidth": 2290,
  "ProcedureStepDescription": "games_shinobi",
  "ProtocolName": "func_task-shinobi_run-4",
  "PulseSequenceDetails": "%CustomerSeq%_cmrr_mbep2d_bold",
  "ReceiveCoilActiveElements": "HC1-7;NC1,2",
  "ReceiveCoilName": "HeadNeck_64",
  "ReconMatrixPE": 104,
  "RepetitionTime": 1.49,
  "SAR": 0.0357268,
  "ScanOptions": "FS",
  "ScanningSequence": "EP",
  "SequenceName": "epfid2d1_104",
  "SequenceVariant": "SK_SS",
  "SeriesDescription": "func_task-shinobi_run-4",
  "SeriesNumber": 15,
  "ShimSetting": [620, -7204, -8869, 340, -24, -160, 0, -29],
  "SliceThickness": 2,
  "SliceTiming": [0, 0.785, 0.0975, 0.8825, 0.195, 0.98, 0.295, 1.0775, 0.3925, 1.175, 0.49, 1.275, 0.5875, 1.3725, 0.685, 0, 0.785, 0.0975, 0.8825, 0.195, 0.98, 0.295, 1.0775, 0.3925, 1.175, 0.49, 1.275, 0.5875, 1.3725, 0.685, 0, 0.785, 0.0975, 0.8825, 0.195, 0.98, 0.295, 1.0775, 0.3925, 1.175, 0.49, 1.275, 0.5875, 1.3725, 0.685, 0, 0.785, 0.0975, 0.8825, 0.195, 0.98, 0.295, 1.0775, 0.3925, 1.175, 0.49, 1.275, 0.5875, 1.3725, 0.685],
  "SoftwareVersions": "syngo_MR_E11",
  "SpacingBetweenSlices": 2,
  "StationName": "MRC35049",
  "TaskName": "shinobi",
  "TotalReadoutTime": 0.0576811,
  "TxRefAmp": 248.497,
  "WipMemBlock": "63bb6627-1284-4176-b51d-715c4496e16c||Sequence: R016 ve11c/master r/e634e98; Dec 19 2017 11:00:25 by eja",
  "dcmmeta_affine": [
    [-1.9991896152496338, 0.004187016282230616, 0.05677250027656555, 105.9735336303711],
    [-0.02527521178126335, 1.7219176292419434, -1.0170354843139648, -49.55565643310547],
    [0.0510079562664032, 1.0173407793045044, 1.7211670875549316, -89.59184265136719],
    [0.0, 0.0, 0.0, 1.0]
],
  "dcmmeta_reorient_transform": [
    [0.0, -1.0, 0.0, 103.0],
    [1.0, 0.0, 0.0, 0.0],
    [0.0, 0.0, 1.0, 0.0],
    [0.0, 0.0, 0.0, 1.0]
],
  "dcmmeta_shape": [104, 104, 60, 488],
  "dcmmeta_slice_dim": 2,
  "dcmmeta_version": 0.6,
  "global": {
    "const": {
      "AcquisitionMatrix": [104, 0, 0, 104],
      "AngioFlag": "N",
      "BitsAllocated": 16,
      "BitsStored": 16,
      "BodyPartExamined": "BRAIN",
      "Columns": 832,
      "EchoNumbers": 1,
      "EchoTime": 37.0,
      "EchoTrainLength": 104,
      "FlipAngle": 52.0,
      "HighBit": 15,
      "ImageOrientationPatient": [0.99959483694628, 0.0126376062317, 0.0255039773186, 0.00209350825069, 0.86095879392359, -0.5086703966114],
      "ImagePositionPatient": [-835.63391310378, -763.7800351294, 366.93941477011],
      "ImageType": [
        "ORIGINAL",
        "PRIMARY",
        "M",
        "MB",
        "ND",
        "MOSAIC"
],
      "ImagedNucleus": "1H",
      "ImagingFrequency": 123.259052,
      "InPlanePhaseEncodingDirection": "COL",
      "MRAcquisitionType": "2D",
      "MagneticFieldStrength": 3.0,
      "Manufacturer": "SIEMENS",
      "ManufacturerModelName": "Prisma_fit",
      "Modality": "MR",
      "NumberOfAverages": 1.0,
      "NumberOfPhaseEncodingSteps": 104,
      "PercentPhaseFieldOfView": 100.0,
      "PercentSampling": 100.0,
      "PerformedProcedureStepStartTime": "103418.766000",
      "PhotometricInterpretation": "MONOCHROME2",
      "PixelBandwidth": 2290.0,
      "PixelRepresentation": 0,
      "PixelSpacing": [2.0, 2.0],
      "ProtocolName": "func_task-shinobi_run-4",
      "RepetitionTime": 1490.0,
      "Rows": 832,
      "SAR": 0.03572683930972,
      "SamplesPerPixel": 1,
      "ScanOptions": "FS",
      "ScanningSequence": "EP",
      "SequenceName": "epfid2d1_104",
      "SequenceVariant": [
        "SK",
        "SS"
],
      "SeriesDescription": "func_task-shinobi_run-4",
      "SeriesNumber": 15,
      "SeriesTime": "112323.952000",
      "SliceLocation": -48.893141078144,
      "SliceThickness": 2.0,
      "SmallestImagePixelValue": 0,
      "SoftwareVersions": "syngo MR E11",
      "SpacingBetweenSlices": 2.0000000742316,
      "SpecificCharacterSet": "ISO_IR 100",
      "StudyID": "1",
      "StudyTime": "103418.679000",
      "TransmitCoilName": "Body",
      "VariableFlipAngleFlag": "N",
      "WindowCenterWidthExplanation": "Algo1",
      "dBdt": 0.0},
    "slices": {}
  },
  "time": {
    "samples": {
      "AcquisitionNumber": [1, 2, 3, 4, 5, 6, 7, 8, 9, 10, 11, 12, 13, 14, 15, 16, 17, 18, 19, 20, 21, 22, 23, 24, 25, 26, 27, 28, 29, 30, 31, 32, 33, 34, 35, 36, 37, 38, 39, 40, 41, 42, 43, 44, 45, 46, 47, 48, 49, 50, 51, 52, 53, 54, 55, 56, 57, 58, 59, 60, 61, 62, 63, 64, 65, 66, 67, 68, 69, 70, 71, 72, 73, 74, 75, 76, 77, 78, 79, 80, 81, 82, 83, 84, 85, 86, 87, 88, 89, 90, 91, 92, 93, 94, 95, 96, 97, 98, 99, 100, 101, 102, 103, 104, 105, 106, 107, 108, 109, 110, 111, 112, 113, 114, 115, 116, 117, 118, 119, 120, 121, 122, 123, 124, 125, 126, 127, 128, 129, 130, 131, 132, 133, 134, 135, 136, 137, 138, 139, 140, 141, 142, 143, 144, 145, 146, 147, 148, 149, 150, 151, 152, 153, 154, 155, 156, 157, 158, 159, 160, 161, 162, 163, 164, 165, 166, 167, 168, 169, 170, 171, 172, 173, 174, 175, 176, 177, 178, 179, 180, 181, 182, 183, 184, 185, 186, 187, 188, 189, 190, 191, 192, 193, 194, 195, 196, 197, 198, 199, 200, 201, 202, 203, 204, 205, 206, 207, 208, 209, 210, 211, 212, 213, 214, 215, 216, 217, 218, 219, 220, 221, 222, 223, 224, 225, 226, 227, 228, 229, 230, 231, 232, 233, 234, 235, 236, 237, 238, 239, 240, 241, 242, 243, 244, 245, 246, 247, 248, 249, 250, 251, 252, 253, 254, 255, 256, 257, 258, 259, 260, 261, 262, 263, 264, 265, 266, 267, 268, 269, 270, 271, 272, 273, 274, 275, 276, 277, 278, 279, 280, 281, 282, 283, 284, 285, 286, 287, 288, 289, 290, 291, 292, 293, 294, 295, 296, 297, 298, 299, 300, 301, 302, 303, 304, 305, 306, 307, 308, 309, 310, 311, 312, 313, 314, 315, 316, 317, 318, 319, 320, 321, 322, 323, 324, 325, 326, 327, 328, 329, 330, 331, 332, 333, 334, 335, 336, 337, 338, 339, 340, 341, 342, 343, 344, 345, 346, 347, 348, 349, 350, 351, 352, 353, 354, 355, 356, 357, 358, 359, 360, 361, 362, 363, 364, 365, 366, 367, 368, 369, 370, 371, 372, 373, 374, 375, 376, 377, 378, 379, 380, 381, 382, 383, 384, 385, 386, 387, 388, 389, 390, 391, 392, 393, 394, 395, 396, 397, 398, 399, 400, 401, 402, 403, 404, 405, 406, 407, 408, 409, 410, 411, 412, 413, 414, 415, 416, 417, 418, 419, 420, 421, 422, 423, 424, 425, 426, 427, 428, 429, 430, 431, 432, 433, 434, 435, 436, 437, 438, 439, 440, 441, 442, 443, 444, 445, 446, 447, 448, 449, 450, 451, 452, 453, 454, 455, 456, 457, 458, 459, 460, 461, 462, 463, 464, 465, 466, 467, 468, 469, 470, 471, 472, 473, 474, 475, 476, 477, 478, 479, 480, 481, 482, 483, 484, 485, 486, 487, 488],
      "AcquisitionTime": ["112152.372500", "112153.862500", "112155.352500", "112156.842500", "112158.332500", "112159.822500", "112201.312500", "112202.802500", "112204.292500", "112205.782500", "112207.272500", "112208.762500", "112210.252500", "112211.742500", "112213.232500", "112214.722500", "112216.212500", "112217.702500", "112219.192500", "112220.682500", "112222.172500", "112223.662500", "112225.152500", "112226.642500", "112228.132500", "112229.622500", "112231.112500", "112232.602500", "112234.092500", "112235.582500", "112237.072500", "112238.562500", "112240.052500", "112241.542500", "112243.032500", "112244.522500", "112246.012500", "112247.502500", "112248.992500", "112250.482500", "112251.972500", "112253.462500", "112254.952500", "112256.442500", "112257.932500", "112259.422500", "112300.912500", "112302.402500", "112303.892500", "112305.382500", "112306.872500", "112308.362500", "112309.852500", "112311.342500", "112312.832500", "112314.322500", "112315.812500", "112317.302500", "112318.792500", "112320.282500", "112321.772500", "112323.262500", "112324.752500", "112326.242500", "112327.732500", "112329.222500", "112330.712500", "112332.202500", "112333.692500", "112335.182500", "112336.672500", "112338.162500", "112339.652500", "112341.142500", "112342.632500", "112344.122500", "112345.612500", "112347.102500", "112348.592500", "112350.082500", "112351.572500", "112353.062500", "112354.552500", "112356.042500", "112357.532500", "112359.022500", "112400.512500", "112402.002500", "112403.492500", "112404.982500", "112406.472500", "112407.962500", "112409.452500", "112410.942500", "112412.432500", "112413.922500", "112415.412500", "112416.902500", "112418.392500", "112419.882500", "112421.372500", "112422.862500", "112424.352500", "112425.842500", "112427.332500", "112428.822500", "112430.312500", "112431.802500", "112433.292500", "112434.782500", "112436.272500", "112437.762500", "112439.252500", "112440.742500", "112442.232500", "112443.722500", "112445.212500", "112446.702500", "112448.192500", "112449.682500", "112451.172500", "112452.662500", "112454.152500", "112455.642500", "112457.132500", "112458.622500", "112500.112500", "112501.602500", "112503.092500", "112504.582500", "112506.072500", "112507.562500", "112509.052500", "112510.542500", "112512.032500", "112513.522500", "112515.012500", "112516.502500", "112517.992500", "112519.482500", "112520.972500", "112522.462500", "112523.952500", "112525.442500", "112526.932500", "112528.422500", "112529.912500", "112531.402500", "112532.892500", "112534.382500", "112535.872500", "112537.362500", "112538.852500", "112540.342500", "112541.832500", "112543.322500", "112544.812500", "112546.302500", "112547.792500", "112549.282500", "112550.772500", "112552.262500", "112553.752500", "112555.242500", "112556.732500", "112558.222500", "112559.712500", "112601.202500", "112602.692500", "112604.182500", "112605.672500", "112607.162500", "112608.652500", "112610.142500", "112611.632500", "112613.122500", "112614.612500", "112616.102500", "112617.592500", "112619.082500", "112620.572500", "112622.062500", "112623.552500", "112625.042500", "112626.532500", "112628.022500", "112629.512500", "112631.002500", "112632.492500", "112633.982500", "112635.472500", "112636.962500", "112638.452500", "112639.942500", "112641.432500", "112642.922500", "112644.412500", "112645.902500", "112647.392500", "112648.882500", "112650.372500", "112651.862500", "112653.352500", "112654.842500", "112656.332500", "112657.822500", "112659.312500", "112700.802500", "112702.292500", "112703.782500", "112705.272500", "112706.762500", "112708.252500", "112709.742500", "112711.232500", "112712.722500", "112714.212500", "112715.702500", "112717.192500", "112718.682500", "112720.172500", "112721.662500", "112723.152500", "112724.642500", "112726.132500", "112727.622500", "112729.112500", "112730.602500", "112732.092500", "112733.582500", "112735.072500", "112736.562500", "112738.052500", "112739.542500", "112741.032500", "112742.522500", "112744.012500", "112745.502500", "112746.992500", "112748.482500", "112749.972500", "112751.462500", "112752.952500", "112754.442500", "112755.932500", "112757.422500", "112758.912500", "112800.402500", "112801.892500", "112803.382500", "112804.872500", "112806.362500", "112807.852500", "112809.342500", "112810.832500", "112812.322500", "112813.812500", "112815.302500", "112816.792500", "112818.282500", "112819.772500", "112821.262500", "112822.752500", "112824.242500", "112825.732500", "112827.222500", "112828.712500", "112830.202500", "112831.692500", "112833.182500", "112834.672500", "112836.162500", "112837.652500", "112839.142500", "112840.632500", "112842.122500", "112843.612500", "112845.102500", "112846.592500", "112848.082500", "112849.572500", "112851.062500", "112852.552500", "112854.042500", "112855.532500", "112857.022500", "112858.512500", "112900.002500", "112901.492500", "112902.982500", "112904.472500", "112905.962500", "112907.452500", "112908.942500", "112910.432500", "112911.922500", "112913.412500", "112914.902500", "112916.392500", "112917.882500", "112919.372500", "112920.862500", "112922.352500", "112923.842500", "112925.332500", "112926.822500", "112928.312500", "112929.802500", "112931.292500", "112932.782500", "112934.272500", "112935.762500", "112937.252500", "112938.742500", "112940.232500", "112941.722500", "112943.212500", "112944.702500", "112946.192500", "112947.682500", "112949.172500", "112950.662500", "112952.152500", "112953.642500", "112955.132500", "112956.622500", "112958.112500", "112959.602500", "113001.092500", "113002.582500", "113004.072500", "113005.562500", "113007.052500", "113008.542500", "113010.032500", "113011.522500", "113013.012500", "113014.502500", "113015.992500", "113017.482500", "113018.972500", "113020.462500", "113021.952500", "113023.442500", "113024.932500", "113026.422500", "113027.912500", "113029.402500", "113030.892500", "113032.382500", "113033.872500", "113035.362500", "113036.852500", "113038.342500", "113039.832500", "113041.322500", "113042.812500", "113044.302500", "113045.792500", "113047.282500", "113048.772500", "113050.262500", "113051.752500", "113053.242500", "113054.732500", "113056.222500", "113057.712500", "113059.202500", "113100.692500", "113102.182500", "113103.672500", "113105.162500", "113106.652500", "113108.142500", "113109.632500", "113111.122500", "113112.612500", "113114.102500", "113115.592500", "113117.082500", "113118.572500", "113120.062500", "113121.552500", "113123.042500", "113124.532500", "113126.022500", "113127.512500", "113129.002500", "113130.492500", "113131.982500", "113133.472500", "113134.962500", "113136.452500", "113137.942500", "113139.432500", "113140.922500", "113142.412500", "113143.902500", "113145.392500", "113146.882500", "113148.372500", "113149.862500", "113151.352500", "113152.842500", "113154.332500", "113155.822500", "113157.312500", "113158.802500", "113200.292500", "113201.782500", "113203.272500", "113204.762500", "113206.252500", "113207.742500", "113209.232500", "113210.722500", "113212.212500", "113213.702500", "113215.192500", "113216.682500", "113218.172500", "113219.662500", "113221.152500", "113222.642500", "113224.132500", "113225.622500", "113227.112500", "113228.602500", "113230.092500", "113231.582500", "113233.072500", "113234.562500", "113236.052500", "113237.542500", "113239.032500", "113240.522500", "113242.012500", "113243.502500", "113244.992500", "113246.482500", "113247.972500", "113249.462500", "113250.952500", "113252.442500", "113253.932500", "113255.422500", "113256.912500", "113258.402500", "113259.892500", "113301.382500", "113302.872500", "113304.362500", "113305.852500", "113307.342500", "113308.832500", "113310.322500", "113311.812500", "113313.302500", "113314.792500", "113316.282500", "113317.772500", "113319.262500", "113320.752500", "113322.242500", "113323.732500", "113325.222500", "113326.712500", "113328.202500", "113329.692500", "113331.182500", "113332.672500", "113334.162500", "113335.652500", "113337.142500", "113338.632500", "113340.122500", "113341.612500", "113343.102500", "113344.592500", "113346.082500", "113347.572500", "113349.062500", "113350.552500", "113352.042500", "113353.532500", "113355.022500", "113356.512500", "113358.002500"],
      "ContentTime": ["112323.957000", "112323.961000", "112323.964000", "112323.967000", "112323.970000", "112323.973000", "112323.976000", "112323.980000", "112323.984000", "112323.987000", "112323.990000", "112323.993000", "112323.996000", "112324.000000", "112324.003000", "112324.006000", "112324.009000", "112324.012000", "112324.015000", "112324.019000", "112324.022000", "112324.025000", "112324.028000", "112324.031000", "112324.034000", "112324.051000", "112324.054000", "112324.062000", "112324.065000", "112324.068000", "112324.071000", "112324.074000", "112324.077000", "112324.080000", "112324.083000", "112324.086000", "112324.089000", "112324.092000", "112343.915000", "112343.918000", "112343.921000", "112343.925000", "112343.928000", "112343.931000", "112343.934000", "112343.937000", "112343.940000", "112343.949000", "112343.952000", "112343.955000", "112343.958000", "112343.961000", "112343.963000", "112343.966000", "112343.969000", "112343.972000", "112343.975000", "112343.978000", "112343.981000", "112403.916000", "112403.919000", "112403.922000", "112403.925000", "112403.928000", "112403.931000", "112403.934000", "112403.937000", "112403.940000", "112403.943000", "112403.946000", "112403.949000", "112403.952000", "112403.955000", "112403.957000", "112403.961000", "112403.963000", "112403.966000", "112403.969000", "112403.972000", "112423.915000", "112423.918000", "112423.921000", "112423.924000", "112423.927000", "112423.930000", "112423.933000", "112423.936000", "112423.939000", "112423.942000", "112423.945000", "112423.948000", "112423.951000", "112423.954000", "112423.957000", "112423.960000", "112423.963000", "112423.966000", "112423.968000", "112423.971000", "112503.915000", "112503.918000", "112503.921000", "112503.924000", "112503.927000", "112503.930000", "112503.933000", "112503.936000", "112503.939000", "112503.942000", "112503.945000", "112503.948000", "112503.951000", "112503.954000", "112503.957000", "112503.960000", "112503.963000", "112503.966000", "112503.969000", "112503.972000", "112503.975000", "112503.978000", "112503.981000", "112503.983000", "112503.986000", "112503.989000", "112503.992000", "112503.995000", "112503.998000", "112543.915000", "112543.919000", "112543.922000", "112543.925000", "112543.929000", "112543.932000", "112543.935000", "112543.938000", "112543.942000", "112543.945000", "112543.948000", "112543.951000", "112543.954000", "112543.957000", "112543.960000", "112543.963000", "112543.966000", "112543.969000", "112543.972000", "112543.975000", "112543.979000", "112543.982000", "112543.985000", "112543.989000", "112543.993000", "112543.996000", "112623.916000", "112623.919000", "112623.922000", "112623.925000", "112623.928000", "112623.931000", "112623.934000", "112623.937000", "112623.940000", "112623.943000", "112623.946000", "112623.949000", "112623.952000", "112623.955000", "112623.958000", "112623.960000", "112623.963000", "112623.966000", "112623.969000", "112623.972000", "112623.975000", "112623.978000", "112623.981000", "112623.984000", "112623.987000", "112623.990000", "112623.993000", "112703.915000", "112703.918000", "112703.921000", "112703.924000", "112703.927000", "112703.930000", "112703.943000", "112703.959000", "112703.962000", "112703.965000", "112703.968000", "112703.971000", "112703.974000", "112703.977000", "112703.980000", "112703.983000", "112703.986000", "112703.989000", "112703.992000", "112703.995000", "112703.998000", "112704.000000", "112704.003000", "112704.006000", "112704.009000", "112704.012000", "112704.015000", "112743.915000", "112743.918000", "112743.921000", "112743.924000", "112743.927000", "112743.930000", "112743.933000", "112743.936000", "112743.939000", "112743.942000", "112743.945000", "112743.948000", "112743.951000", "112743.954000", "112743.957000", "112743.960000", "112743.963000", "112743.966000", "112743.969000", "112743.972000", "112743.975000", "112743.977000", "112743.981000", "112743.984000", "112743.986000", "112743.989000", "112743.992000", "112823.916000", "112823.919000", "112823.922000", "112823.925000", "112823.928000", "112823.931000", "112823.934000", "112823.937000", "112823.940000", "112823.943000", "112823.946000", "112823.953000", "112823.956000", "112823.959000", "112823.962000", "112823.965000", "112823.968000", "112823.971000", "112823.974000", "112823.977000", "112823.980000", "112823.983000", "112823.986000", "112823.989000", "112823.992000", "112823.995000", "112823.998000", "112903.915000", "112903.918000", "112903.921000", "112903.924000", "112903.927000", "112903.930000", "112903.933000", "112903.936000", "112903.939000", "112903.942000", "112903.945000", "112903.948000", "112903.951000", "112903.954000", "112903.957000", "112903.960000", "112903.963000", "112903.966000", "112903.969000", "112903.972000", "112903.975000", "112903.978000", "112903.981000", "112903.984000", "112903.987000", "112903.990000", "112903.992000", "112943.915000", "112943.918000", "112943.921000", "112943.924000", "112943.927000", "112943.930000", "112943.933000", "112943.937000", "112943.939000", "112943.942000", "112943.945000", "112943.948000", "112943.951000", "112943.954000", "112943.957000", "112943.960000", "112943.963000", "112943.966000", "112943.969000", "112943.972000", "112943.975000", "112943.978000", "112943.981000", "112943.984000", "112943.987000", "112943.990000", "112943.993000", "113023.915000", "113023.918000", "113023.921000", "113023.924000", "113023.927000", "113023.930000", "113023.933000", "113023.936000", "113023.939000", "113023.942000", "113023.945000", "113023.948000", "113023.951000", "113023.954000", "113023.957000", "113023.960000", "113023.963000", "113023.966000", "113023.969000", "113023.972000", "113023.975000", "113023.979000", "113023.982000", "113023.985000", "113023.988000", "113023.991000", "113103.915000", "113103.918000", "113103.921000", "113103.924000", "113103.927000", "113103.930000", "113103.933000", "113103.936000", "113103.939000", "113103.942000", "113103.945000", "113103.948000", "113103.951000", "113103.954000", "113103.957000", "113103.960000", "113103.963000", "113103.966000", "113103.968000", "113103.971000", "113103.974000", "113103.977000", "113103.980000", "113103.983000", "113103.986000", "113103.989000", "113103.992000", "113143.915000", "113143.918000", "113143.921000", "113143.924000", "113143.927000", "113143.930000", "113143.948000", "113143.951000", "113143.954000", "113143.957000", "113143.960000", "113143.963000", "113143.966000", "113143.969000", "113143.972000", "113143.975000", "113143.978000", "113143.981000", "113143.984000", "113143.987000", "113143.990000", "113143.993000", "113143.996000", "113144.000000", "113144.003000", "113144.006000", "113144.009000", "113223.915000", "113223.918000", "113223.921000", "113223.924000", "113223.927000", "113223.930000", "113223.933000", "113223.936000", "113223.939000", "113223.942000", "113223.945000", "113223.948000", "113223.951000", "113223.954000", "113223.957000", "113223.960000", "113223.963000", "113223.966000", "113223.969000", "113223.972000", "113223.975000", "113223.978000", "113223.981000", "113223.984000", "113223.986000", "113223.989000", "113223.992000", "113303.916000", "113303.919000", "113303.922000", "113303.925000", "113303.928000", "113303.931000", "113303.934000", "113303.937000", "113303.940000", "113303.943000", "113303.946000", "113303.949000", "113303.952000", "113303.955000", "113303.958000", "113303.961000", "113303.964000", "113303.967000", "113303.970000", "113303.973000", "113303.976000", "113303.979000", "113303.982000", "113303.985000", "113303.988000", "113303.991000", "113303.994000", "113343.915000", "113343.918000", "113343.921000", "113343.924000", "113343.927000", "113343.930000", "113343.933000", "113343.936000", "113343.939000", "113343.942000", "113343.945000", "113343.948000", "113343.951000", "113343.954000", "113343.957000", "113343.960000", "113343.963000", "113343.966000", "113343.969000", "113343.972000", "113343.975000", "113343.978000", "113343.981000", "113343.984000", "113343.987000", "113343.990000", "113343.993000", "113400.489000", "113400.493000", "113400.496000", "113400.499000", "113400.502000", "113400.505000", "113400.508000", "113400.512000", "113400.515000", "113400.518000", "113400.521000"],
