{
  "AcquisitionMatrixPE": 104,
  "AcquisitionNumber": 1,
  "AcquisitionTime": "11:09:12.052500",
  "BandwidthPerPixelPhaseEncode": 17.17,
  "BaseResolution": 104,
  "BodyPartExamined": "BRAIN",
  "CoilString": "HC1-7;NC1_2",
  "ConsistencyInfo": "N4_VE11C_LATEST_20160120",
  "ConversionSoftware": "dcm2niix",
  "ConversionSoftwareVersion": "v1.0.20190902",
  "DerivedVendorReportedEchoSpacing": 0.000560011,
  "DeviceSerialNumber": "167006",
  "DwellTime": 2.1e-06,
  "EchoTime": 0.037,
  "EchoTrainLength": 104,
  "EffectiveEchoSpacing": 0.000560011,
  "FlipAngle": 52,
  "ImageComments": "Unaliased_MB4_PE3_LB",
  "ImageOrientationPatientDICOM": [0.999595, 0.0126376, 0.025504, 0.00209351, 0.860959, -0.50867],
  "ImageType": [
    "ORIGINAL",
    "PRIMARY",
    "M",
    "MB",
    "ND",
    "MOSAIC"
],
  "ImagingFrequency": 123.259,
  "InPlanePhaseEncodingDirectionDICOM": "COL",
  "InstitutionAddress": "Chemin_Queen-Mary_4565_Montreal_District_CA_H3W_1W5",
  "InstitutionName": "IUGM",
  "InstitutionalDepartmentName": "Department",
  "MRAcquisitionType": "2D",
  "MagneticFieldStrength": 3,
  "Manufacturer": "Siemens",
  "ManufacturersModelName": "Prisma_fit",
  "Modality": "MR",
  "MultibandAccelerationFactor": 4,
  "PartialFourier": 1,
  "PatientPosition": "HFS",
  "PercentPhaseFOV": 100,
  "PhaseEncodingDirection": "j",
  "PhaseEncodingSteps": 104,
  "PhaseResolution": 1,
  "PixelBandwidth": 2290,
  "ProcedureStepDescription": "games_shinobi",
  "ProtocolName": "func_task-shinobi_run-3",
  "PulseSequenceDetails": "%CustomerSeq%_cmrr_mbep2d_bold",
  "ReceiveCoilActiveElements": "HC1-7;NC1,2",
  "ReceiveCoilName": "HeadNeck_64",
  "ReconMatrixPE": 104,
  "RepetitionTime": 1.49,
  "SAR": 0.0357268,
  "ScanOptions": "FS",
  "ScanningSequence": "EP",
  "SequenceName": "epfid2d1_104",
  "SequenceVariant": "SK_SS",
  "SeriesDescription": "func_task-shinobi_run-3",
  "SeriesNumber": 13,
  "ShimSetting": [620, -7204, -8869, 340, -24, -160, 0, -29],
  "SliceThickness": 2,
  "SliceTiming": [0, 0.785, 0.0975, 0.8825, 0.1975, 0.98, 0.295, 1.0775, 0.3925, 1.1775, 0.49, 1.275, 0.5875, 1.3725, 0.6875, 0, 0.785, 0.0975, 0.8825, 0.1975, 0.98, 0.295, 1.0775, 0.3925, 1.1775, 0.49, 1.275, 0.5875, 1.3725, 0.6875, 0, 0.785, 0.0975, 0.8825, 0.1975, 0.98, 0.295, 1.0775, 0.3925, 1.1775, 0.49, 1.275, 0.5875, 1.3725, 0.6875, 0, 0.785, 0.0975, 0.8825, 0.1975, 0.98, 0.295, 1.0775, 0.3925, 1.1775, 0.49, 1.275, 0.5875, 1.3725, 0.6875],
  "SoftwareVersions": "syngo_MR_E11",
  "SpacingBetweenSlices": 2,
  "StationName": "MRC35049",
  "TaskName": "shinobi",
  "TotalReadoutTime": 0.0576811,
  "TxRefAmp": 248.497,
  "WipMemBlock": "9a3f74bc-455c-452a-b724-92318e912f09||Sequence: R016 ve11c/master r/e634e98; Dec 19 2017 11:00:25 by eja",
  "dcmmeta_affine": [
    [-1.9991896152496338, 0.004187016282230616, 0.05677250027656555, 105.9735336303711],
    [-0.02527521178126335, 1.7219176292419434, -1.0170354843139648, -49.55565643310547],
    [0.0510079562664032, 1.0173407793045044, 1.7211670875549316, -89.59184265136719],
    [0.0, 0.0, 0.0, 1.0]
],
  "dcmmeta_reorient_transform": [
    [0.0, -1.0, 0.0, 103.0],
    [1.0, 0.0, 0.0, 0.0],
    [0.0, 0.0, 1.0, 0.0],
    [0.0, 0.0, 0.0, 1.0]
],
  "dcmmeta_shape": [104, 104, 60, 438],
  "dcmmeta_slice_dim": 2,
  "dcmmeta_version": 0.6,
  "global": {
    "const": {
      "AcquisitionMatrix": [104, 0, 0, 104],
      "AngioFlag": "N",
      "BitsAllocated": 16,
      "BitsStored": 16,
      "BodyPartExamined": "BRAIN",
      "Columns": 832,
      "EchoNumbers": 1,
      "EchoTime": 37.0,
      "EchoTrainLength": 104,
      "FlipAngle": 52.0,
      "HighBit": 15,
      "ImageOrientationPatient": [0.99959483694628, 0.0126376062317, 0.0255039773186, 0.00209350825069, 0.86095879392359, -0.5086703966114],
      "ImagePositionPatient": [-835.63391310378, -763.7800351294, 366.93941477011],
      "ImageType": [
        "ORIGINAL",
        "PRIMARY",
        "M",
        "MB",
        "ND",
        "MOSAIC"
],
      "ImagedNucleus": "1H",
      "ImagingFrequency": 123.259057,
      "InPlanePhaseEncodingDirection": "COL",
      "MRAcquisitionType": "2D",
      "MagneticFieldStrength": 3.0,
      "Manufacturer": "SIEMENS",
      "ManufacturerModelName": "Prisma_fit",
      "Modality": "MR",
      "NumberOfAverages": 1.0,
      "NumberOfPhaseEncodingSteps": 104,
      "PercentPhaseFieldOfView": 100.0,
      "PercentSampling": 100.0,
      "PerformedProcedureStepStartTime": "103418.766000",
      "PhotometricInterpretation": "MONOCHROME2",
      "PixelBandwidth": 2290.0,
      "PixelRepresentation": 0,
      "PixelSpacing": [2.0, 2.0],
      "ProtocolName": "func_task-shinobi_run-3",
      "RepetitionTime": 1490.0,
      "Rows": 832,
      "SAR": 0.03572683930972,
      "SamplesPerPixel": 1,
      "ScanOptions": "FS",
      "ScanningSequence": "EP",
      "SequenceName": "epfid2d1_104",
      "SequenceVariant": [
        "SK",
        "SS"
],
      "SeriesDescription": "func_task-shinobi_run-3",
      "SeriesNumber": 13,
      "SeriesTime": "111027.835000",
      "SliceLocation": -48.893141078144,
      "SliceThickness": 2.0,
      "SmallestImagePixelValue": 0,
      "SoftwareVersions": "syngo MR E11",
      "SpacingBetweenSlices": 2.0000000742316,
      "SpecificCharacterSet": "ISO_IR 100",
      "StudyID": "1",
      "StudyTime": "103418.679000",
      "TransmitCoilName": "Body",
      "VariableFlipAngleFlag": "N",
      "WindowCenterWidthExplanation": "Algo1",
      "dBdt": 0.0},
    "slices": {}
  },
  "time": {
    "samples": {
      "AcquisitionNumber": [1, 2, 3, 4, 5, 6, 7, 8, 9, 10, 11, 12, 13, 14, 15, 16, 17, 18, 19, 20, 21, 22, 23, 24, 25, 26, 27, 28, 29, 30, 31, 32, 33, 34, 35, 36, 37, 38, 39, 40, 41, 42, 43, 44, 45, 46, 47, 48, 49, 50, 51, 52, 53, 54, 55, 56, 57, 58, 59, 60, 61, 62, 63, 64, 65, 66, 67, 68, 69, 70, 71, 72, 73, 74, 75, 76, 77, 78, 79, 80, 81, 82, 83, 84, 85, 86, 87, 88, 89, 90, 91, 92, 93, 94, 95, 96, 97, 98, 99, 100, 101, 102, 103, 104, 105, 106, 107, 108, 109, 110, 111, 112, 113, 114, 115, 116, 117, 118, 119, 120, 121, 122, 123, 124, 125, 126, 127, 128, 129, 130, 131, 132, 133, 134, 135, 136, 137, 138, 139, 140, 141, 142, 143, 144, 145, 146, 147, 148, 149, 150, 151, 152, 153, 154, 155, 156, 157, 158, 159, 160, 161, 162, 163, 164, 165, 166, 167, 168, 169, 170, 171, 172, 173, 174, 175, 176, 177, 178, 179, 180, 181, 182, 183, 184, 185, 186, 187, 188, 189, 190, 191, 192, 193, 194, 195, 196, 197, 198, 199, 200, 201, 202, 203, 204, 205, 206, 207, 208, 209, 210, 211, 212, 213, 214, 215, 216, 217, 218, 219, 220, 221, 222, 223, 224, 225, 226, 227, 228, 229, 230, 231, 232, 233, 234, 235, 236, 237, 238, 239, 240, 241, 242, 243, 244, 245, 246, 247, 248, 249, 250, 251, 252, 253, 254, 255, 256, 257, 258, 259, 260, 261, 262, 263, 264, 265, 266, 267, 268, 269, 270, 271, 272, 273, 274, 275, 276, 277, 278, 279, 280, 281, 282, 283, 284, 285, 286, 287, 288, 289, 290, 291, 292, 293, 294, 295, 296, 297, 298, 299, 300, 301, 302, 303, 304, 305, 306, 307, 308, 309, 310, 311, 312, 313, 314, 315, 316, 317, 318, 319, 320, 321, 322, 323, 324, 325, 326, 327, 328, 329, 330, 331, 332, 333, 334, 335, 336, 337, 338, 339, 340, 341, 342, 343, 344, 345, 346, 347, 348, 349, 350, 351, 352, 353, 354, 355, 356, 357, 358, 359, 360, 361, 362, 363, 364, 365, 366, 367, 368, 369, 370, 371, 372, 373, 374, 375, 376, 377, 378, 379, 380, 381, 382, 383, 384, 385, 386, 387, 388, 389, 390, 391, 392, 393, 394, 395, 396, 397, 398, 399, 400, 401, 402, 403, 404, 405, 406, 407, 408, 409, 410, 411, 412, 413, 414, 415, 416, 417, 418, 419, 420, 421, 422, 423, 424, 425, 426, 427, 428, 429, 430, 431, 432, 433, 434, 435, 436, 437, 438],
      "AcquisitionTime": ["110912.052500", "110913.542500", "110915.032500", "110916.522500", "110918.012500", "110919.502500", "110920.992500", "110922.482500", "110923.972500", "110925.462500", "110926.952500", "110928.442500", "110929.932500", "110931.422500", "110932.912500", "110934.402500", "110935.892500", "110937.382500", "110938.872500", "110940.362500", "110941.852500", "110943.342500", "110944.832500", "110946.322500", "110947.812500", "110949.302500", "110950.792500", "110952.282500", "110953.772500", "110955.262500", "110956.752500", "110958.242500", "110959.732500", "111001.222500", "111002.712500", "111004.202500", "111005.692500", "111007.182500", "111008.672500", "111010.162500", "111011.652500", "111013.142500", "111014.632500", "111016.122500", "111017.612500", "111019.102500", "111020.592500", "111022.082500", "111023.572500", "111025.062500", "111026.552500", "111028.042500", "111029.532500", "111031.022500", "111032.512500", "111034.002500", "111035.492500", "111036.982500", "111038.472500", "111039.962500", "111041.452500", "111042.942500", "111044.432500", "111045.922500", "111047.412500", "111048.902500", "111050.392500", "111051.882500", "111053.372500", "111054.862500", "111056.352500", "111057.842500", "111059.332500", "111100.822500", "111102.312500", "111103.802500", "111105.292500", "111106.782500", "111108.272500", "111109.762500", "111111.252500", "111112.742500", "111114.232500", "111115.722500", "111117.212500", "111118.702500", "111120.192500", "111121.682500", "111123.172500", "111124.662500", "111126.152500", "111127.642500", "111129.132500", "111130.622500", "111132.112500", "111133.602500", "111135.092500", "111136.582500", "111138.072500", "111139.562500", "111141.052500", "111142.542500", "111144.032500", "111145.522500", "111147.012500", "111148.502500", "111149.992500", "111151.482500", "111152.972500", "111154.462500", "111155.952500", "111157.442500", "111158.932500", "111200.422500", "111201.912500", "111203.402500", "111204.892500", "111206.382500", "111207.872500", "111209.362500", "111210.852500", "111212.342500", "111213.832500", "111215.322500", "111216.812500", "111218.302500", "111219.792500", "111221.282500", "111222.772500", "111224.262500", "111225.752500", "111227.242500", "111228.732500", "111230.222500", "111231.712500", "111233.202500", "111234.692500", "111236.182500", "111237.672500", "111239.162500", "111240.652500", "111242.142500", "111243.632500", "111245.122500", "111246.612500", "111248.102500", "111249.592500", "111251.082500", "111252.572500", "111254.062500", "111255.552500", "111257.042500", "111258.532500", "111300.022500", "111301.512500", "111303.002500", "111304.492500", "111305.982500", "111307.472500", "111308.962500", "111310.452500", "111311.942500", "111313.432500", "111314.922500", "111316.412500", "111317.902500", "111319.392500", "111320.882500", "111322.372500", "111323.862500", "111325.352500", "111326.842500", "111328.332500", "111329.822500", "111331.312500", "111332.802500", "111334.292500", "111335.782500", "111337.272500", "111338.762500", "111340.252500", "111341.742500", "111343.232500", "111344.722500", "111346.212500", "111347.702500", "111349.192500", "111350.682500", "111352.172500", "111353.662500", "111355.152500", "111356.642500", "111358.132500", "111359.622500", "111401.112500", "111402.602500", "111404.092500", "111405.582500", "111407.072500", "111408.562500", "111410.052500", "111411.542500", "111413.032500", "111414.522500", "111416.012500", "111417.502500", "111418.992500", "111420.482500", "111421.972500", "111423.462500", "111424.952500", "111426.442500", "111427.932500", "111429.422500", "111430.912500", "111432.402500", "111433.892500", "111435.382500", "111436.872500", "111438.362500", "111439.852500", "111441.342500", "111442.832500", "111444.322500", "111445.812500", "111447.302500", "111448.792500", "111450.282500", "111451.772500", "111453.262500", "111454.752500", "111456.242500", "111457.732500", "111459.222500", "111500.712500", "111502.202500", "111503.692500", "111505.182500", "111506.672500", "111508.162500", "111509.652500", "111511.142500", "111512.632500", "111514.122500", "111515.612500", "111517.102500", "111518.592500", "111520.082500", "111521.572500", "111523.062500", "111524.552500", "111526.042500", "111527.532500", "111529.022500", "111530.512500", "111532.002500", "111533.492500", "111534.982500", "111536.472500", "111537.962500", "111539.452500", "111540.942500", "111542.432500", "111543.922500", "111545.412500", "111546.902500", "111548.392500", "111549.882500", "111551.372500", "111552.862500", "111554.352500", "111555.842500", "111557.332500", "111558.822500", "111600.312500", "111601.802500", "111603.292500", "111604.782500", "111606.272500", "111607.762500", "111609.252500", "111610.742500", "111612.232500", "111613.722500", "111615.212500", "111616.702500", "111618.192500", "111619.682500", "111621.172500", "111622.662500", "111624.152500", "111625.642500", "111627.132500", "111628.622500", "111630.112500", "111631.602500", "111633.092500", "111634.582500", "111636.072500", "111637.562500", "111639.052500", "111640.542500", "111642.032500", "111643.522500", "111645.012500", "111646.502500", "111647.992500", "111649.482500", "111650.972500", "111652.462500", "111653.952500", "111655.442500", "111656.932500", "111658.422500", "111659.912500", "111701.402500", "111702.892500", "111704.382500", "111705.872500", "111707.362500", "111708.852500", "111710.342500", "111711.832500", "111713.322500", "111714.812500", "111716.302500", "111717.792500", "111719.282500", "111720.772500", "111722.262500", "111723.752500", "111725.242500", "111726.732500", "111728.222500", "111729.712500", "111731.202500", "111732.692500", "111734.182500", "111735.672500", "111737.162500", "111738.652500", "111740.142500", "111741.632500", "111743.122500", "111744.612500", "111746.102500", "111747.592500", "111749.082500", "111750.572500", "111752.062500", "111753.552500", "111755.042500", "111756.532500", "111758.022500", "111759.512500", "111801.002500", "111802.492500", "111803.982500", "111805.472500", "111806.962500", "111808.452500", "111809.942500", "111811.432500", "111812.922500", "111814.412500", "111815.902500", "111817.392500", "111818.882500", "111820.372500", "111821.862500", "111823.352500", "111824.842500", "111826.332500", "111827.822500", "111829.312500", "111830.802500", "111832.292500", "111833.782500", "111835.272500", "111836.762500", "111838.252500", "111839.742500", "111841.232500", "111842.722500", "111844.212500", "111845.702500", "111847.192500", "111848.682500", "111850.172500", "111851.662500", "111853.152500", "111854.642500", "111856.132500", "111857.622500", "111859.112500", "111900.602500", "111902.092500", "111903.582500", "111905.072500", "111906.562500", "111908.052500", "111909.542500", "111911.032500", "111912.522500", "111914.012500", "111915.502500", "111916.992500", "111918.482500", "111919.972500", "111921.462500", "111922.952500", "111924.442500", "111925.932500", "111927.422500", "111928.912500", "111930.402500", "111931.892500", "111933.382500", "111934.872500", "111936.362500", "111937.852500", "111939.342500", "111940.832500", "111942.322500", "111943.812500", "111945.302500", "111946.792500", "111948.282500", "111949.772500", "111951.262500", "111952.752500", "111954.242500", "111955.732500", "111957.222500", "111958.712500", "112000.202500", "112001.692500", "112003.182500"],
      "ContentTime": ["111027.838000", "111027.841000", "111027.844000", "111027.847000", "111027.850000", "111027.853000", "111027.856000", "111027.859000", "111027.875000", "111027.878000", "111027.881000", "111027.884000", "111027.887000", "111027.890000", "111027.893000", "111027.900000", "111027.903000", "111027.914000", "111027.917000", "111027.920000", "111027.923000", "111027.926000", "111047.807000", "111047.810000", "111047.813000", "111047.817000", "111047.820000", "111047.822000", "111047.826000", "111047.828000", "111047.831000", "111047.834000", "111047.837000", "111047.840000", "111047.843000", "111047.846000", "111047.849000", "111047.852000", "111047.855000", "111047.858000", "111047.861000", "111047.864000", "111107.807000", "111107.811000", "111107.815000", "111107.818000", "111107.821000", "111107.824000", "111107.828000", "111107.831000", "111107.851000", "111107.854000", "111107.857000", "111107.860000", "111107.863000", "111107.866000", "111107.869000", "111107.872000", "111107.875000", "111107.878000", "111107.881000", "111107.884000", "111127.807000", "111127.810000", "111127.813000", "111127.816000", "111127.819000", "111127.822000", "111127.825000", "111127.828000", "111127.831000", "111127.834000", "111127.837000", "111127.840000", "111127.843000", "111127.845000", "111127.848000", "111127.851000", "111127.854000", "111127.857000", "111127.860000", "111127.863000", "111127.866000", "111147.808000", "111147.811000", "111147.814000", "111147.817000", "111147.820000", "111147.823000", "111147.826000", "111147.829000", "111147.832000", "111147.835000", "111147.837000", "111147.840000", "111147.843000", "111147.846000", "111147.849000", "111147.852000", "111147.855000", "111147.858000", "111147.861000", "111147.864000", "111227.808000", "111227.811000", "111227.814000", "111227.827000", "111227.830000", "111227.833000", "111227.836000", "111227.839000", "111227.842000", "111227.845000", "111227.847000", "111227.851000", "111227.853000", "111227.856000", "111227.859000", "111227.862000", "111227.865000", "111227.868000", "111227.871000", "111227.874000", "111227.877000", "111227.880000", "111227.883000", "111227.886000", "111227.889000", "111227.892000", "111227.895000", "111227.898000", "111307.807000", "111307.810000", "111307.813000", "111307.830000", "111307.833000", "111307.836000", "111307.839000", "111307.842000", "111307.845000", "111307.848000", "111307.851000", "111307.854000", "111307.857000", "111307.860000", "111307.863000", "111307.866000", "111307.869000", "111307.872000", "111307.875000", "111307.879000", "111307.882000", "111307.884000", "111307.887000", "111307.890000", "111307.893000", "111307.896000", "111347.807000", "111347.810000", "111347.813000", "111347.816000", "111347.819000", "111347.831000", "111347.834000", "111347.837000", "111347.840000", "111347.843000", "111347.846000", "111347.849000", "111347.852000", "111347.854000", "111347.857000", "111347.860000", "111347.863000", "111347.866000", "111347.869000", "111347.872000", "111347.875000", "111347.878000", "111347.881000", "111347.884000", "111347.887000", "111347.890000", "111347.893000", "111427.808000", "111427.811000", "111427.814000", "111427.817000", "111427.820000", "111427.823000", "111427.826000", "111427.829000", "111427.832000", "111427.835000", "111427.838000", "111427.841000", "111427.844000", "111427.847000", "111427.850000", "111427.853000", "111427.856000", "111427.859000", "111427.862000", "111427.865000", "111427.867000", "111427.870000", "111427.873000", "111427.876000", "111427.879000", "111427.882000", "111427.885000", "111507.808000", "111507.811000", "111507.814000", "111507.817000", "111507.820000", "111507.823000", "111507.826000", "111507.829000", "111507.832000", "111507.835000", "111507.838000", "111507.841000", "111507.844000", "111507.847000", "111507.850000", "111507.853000", "111507.856000", "111507.859000", "111507.862000", "111507.865000", "111507.867000", "111507.871000", "111507.874000", "111507.876000", "111507.879000", "111507.882000", "111507.885000", "111547.807000", "111547.810000", "111547.813000", "111547.816000", "111547.819000", "111547.822000", "111547.825000", "111547.828000", "111547.831000", "111547.834000", "111547.837000", "111547.839000", "111547.843000", "111547.845000", "111547.848000", "111547.851000", "111547.854000", "111547.857000", "111547.860000", "111547.863000", "111547.866000", "111547.869000", "111547.872000", "111547.875000", "111547.878000", "111547.880000", "111547.883000", "111627.808000", "111627.811000", "111627.814000", "111627.817000", "111627.820000", "111627.823000", "111627.826000", "111627.829000", "111627.832000", "111627.835000", "111627.838000", "111627.841000", "111627.844000", "111627.847000", "111627.850000", "111627.853000", "111627.856000", "111627.859000", "111627.862000", "111627.865000", "111627.868000", "111627.871000", "111627.873000", "111627.877000", "111627.879000", "111627.882000", "111627.885000", "111707.808000", "111707.811000", "111707.814000", "111707.817000", "111707.820000", "111707.823000", "111707.826000", "111707.829000", "111707.832000", "111707.835000", "111707.838000", "111707.841000", "111707.844000", "111707.847000", "111707.850000", "111707.853000", "111707.867000", "111707.871000", "111707.874000", "111707.877000", "111707.880000", "111707.883000", "111707.887000", "111707.891000", "111707.894000", "111707.897000", "111747.807000", "111747.810000", "111747.813000", "111747.816000", "111747.819000", "111747.822000", "111747.825000", "111747.828000", "111747.831000", "111747.834000", "111747.837000", "111747.839000", "111747.843000", "111747.846000", "111747.848000", "111747.851000", "111747.855000", "111747.858000", "111747.860000", "111747.863000", "111747.866000", "111747.869000", "111747.872000", "111747.875000", "111747.878000", "111747.881000", "111747.884000", "111827.807000", "111827.810000", "111827.813000", "111827.816000", "111827.819000", "111827.822000", "111827.825000", "111827.828000", "111827.831000", "111827.834000", "111827.837000", "111827.840000", "111827.843000", "111827.846000", "111827.849000", "111827.852000", "111827.855000", "111827.858000", "111827.861000", "111827.864000", "111827.867000", "111827.870000", "111827.873000", "111827.877000", "111827.880000", "111827.883000", "111827.886000", "111907.809000", "111907.812000", "111907.815000", "111907.818000", "111907.821000", "111907.824000", "111907.827000", "111907.830000", "111907.833000", "111907.836000", "111907.839000", "111907.842000", "111907.845000", "111907.848000", "111907.851000", "111907.854000", "111907.857000", "111907.860000", "111907.863000", "111907.865000", "111907.868000", "111907.871000", "111907.874000", "111907.877000", "111907.880000", "111907.883000", "111907.886000", "111947.808000", "111947.811000", "111947.814000", "111947.817000", "111947.820000", "111947.823000", "111947.826000", "111947.829000", "111947.832000", "111947.835000", "111947.838000", "111947.841000", "111947.844000", "111947.847000", "111947.850000", "111947.853000", "111947.856000", "111947.859000", "111947.862000", "111947.865000", "111947.868000", "111947.871000", "111947.874000", "111947.876000", "111947.879000", "111947.882000", "111947.885000", "112005.712000", "112005.715000", "112005.718000", "112005.721000", "112005.724000", "112005.727000", "112005.730000", "112005.733000", "112005.736000", "112005.739000", "112005.742000", "112005.745000"],
