{
  "AcquisitionMatrixPE": 104,
  "AcquisitionNumber": 1,
  "AcquisitionTime": "13:59:29.290000",
  "BandwidthPerPixelPhaseEncode": 17.17,
  "BaseResolution": 104,
  "BodyPartExamined": "BRAIN",
  "CoilString": "HC1-7;NC1_2",
  "ConsistencyInfo": "N4_VE11C_LATEST_20160120",
  "ConversionSoftware": "dcm2niix",
  "ConversionSoftwareVersion": "v1.0.20190902",
  "DerivedVendorReportedEchoSpacing": 0.000560011,
  "DeviceSerialNumber": "167006",
  "DwellTime": 2.1e-06,
  "EchoTime": 0.037,
  "EchoTrainLength": 104,
  "EffectiveEchoSpacing": 0.000560011,
  "FlipAngle": 52,
  "ImageComments": "Unaliased_MB4_PE3_LB",
  "ImageOrientationPatientDICOM": [0.999264, 0.00781314, -0.0375507, -0.0163955, 0.972089, -0.234041],
  "ImageType": [
    "ORIGINAL",
    "PRIMARY",
    "M",
    "MB",
    "ND",
    "MOSAIC"
],
  "ImagingFrequency": 123.259,
  "InPlanePhaseEncodingDirectionDICOM": "COL",
  "InstitutionAddress": "Chemin_Queen-Mary_4565_Montreal_District_CA_H3W_1W5",
  "InstitutionName": "IUGM",
  "InstitutionalDepartmentName": "Department",
  "MRAcquisitionType": "2D",
  "MagneticFieldStrength": 3,
  "Manufacturer": "Siemens",
  "ManufacturersModelName": "Prisma_fit",
  "Modality": "MR",
  "MultibandAccelerationFactor": 4,
  "PartialFourier": 1,
  "PatientPosition": "HFS",
  "PercentPhaseFOV": 100,
  "PhaseEncodingDirection": "j",
  "PhaseEncodingSteps": 104,
  "PhaseResolution": 1,
  "PixelBandwidth": 2290,
  "ProcedureStepDescription": "games_shinobi",
  "ProtocolName": "func_task-shinobi_run-4",
  "PulseSequenceDetails": "%CustomerSeq%_cmrr_mbep2d_bold",
  "ReceiveCoilActiveElements": "HC1-7;NC1,2",
  "ReceiveCoilName": "HeadNeck_64",
  "ReconMatrixPE": 104,
  "RepetitionTime": 1.49,
  "SAR": 0.0290211,
  "ScanOptions": "FS",
  "ScanningSequence": "EP",
  "SequenceName": "epfid2d1_104",
  "SequenceVariant": "SK_SS",
  "SeriesDescription": "func_task-shinobi_run-4",
  "SeriesNumber": 15,
  "ShimSetting": [600, -7238, -8833, 634, -71, -244, 8, 40],
  "SliceThickness": 2,
  "SliceTiming": [0, 0.7825, 0.0975, 0.88, 0.195, 0.98, 0.2925, 1.0775, 0.39, 1.175, 0.49, 1.2725, 0.5875, 1.37, 0.685, 0, 0.7825, 0.0975, 0.88, 0.195, 0.98, 0.2925, 1.0775, 0.39, 1.175, 0.49, 1.2725, 0.5875, 1.37, 0.685, 0, 0.7825, 0.0975, 0.88, 0.195, 0.98, 0.2925, 1.0775, 0.39, 1.175, 0.49, 1.2725, 0.5875, 1.37, 0.685, 0, 0.7825, 0.0975, 0.88, 0.195, 0.98, 0.2925, 1.0775, 0.39, 1.175, 0.49, 1.2725, 0.5875, 1.37, 0.685],
  "SoftwareVersions": "syngo_MR_E11",
  "SpacingBetweenSlices": 2,
  "StationName": "MRC35049",
  "TaskName": "shinobi",
  "TotalReadoutTime": 0.0576811,
  "TxRefAmp": 216.597,
  "WipMemBlock": "41d299ad-82b9-4c71-8af5-00f752bcb99d||Sequence: R016 ve11c/master r/e634e98; Dec 19 2017 11:00:25 by eja",
  "dcmmeta_affine": [
    [-1.9985283613204956, -0.032791055738925934, -0.06934808194637299, 106.45492553710938],
    [-0.015626277774572372, 1.9441770315170288, -0.46896839141845703, -71.63530731201172],
    [-0.07510145753622055, 0.4680814743041992, 1.9430028200149536, -53.268497467041016],
    [0.0, 0.0, 0.0, 1.0]
],
  "dcmmeta_reorient_transform": [
    [0.0, -1.0, 0.0, 103.0],
    [1.0, 0.0, 0.0, 0.0],
    [0.0, 0.0, 1.0, 0.0],
    [0.0, 0.0, 0.0, 1.0]
],
  "dcmmeta_shape": [104, 104, 60, 485],
  "dcmmeta_slice_dim": 2,
  "dcmmeta_version": 0.6,
  "global": {
    "const": {
      "AcquisitionMatrix": [104, 0, 0, 104],
      "AngioFlag": "N",
      "BitsAllocated": 16,
      "BitsStored": 16,
      "BodyPartExamined": "BRAIN",
      "Columns": 832,
      "EchoNumbers": 1,
      "EchoTime": 37.0,
      "EchoTrainLength": 104,
      "FlipAngle": 52.0,
      "HighBit": 15,
      "ImageOrientationPatient": [0.99926417809707, 0.00781313871481, -0.0375507288266, -0.0163955269512, 0.97208853548965, -0.2340407354833],
      "ImagePositionPatient": [-818.60582602256, -841.98334735706, 192.66248163719],
      "ImageType": [
        "ORIGINAL",
        "PRIMARY",
        "M",
        "MB",
        "ND",
        "MOSAIC"
],
      "ImagedNucleus": "1H",
      "ImagingFrequency": 123.259004,
      "InPlanePhaseEncodingDirection": "COL",
      "MRAcquisitionType": "2D",
      "MagneticFieldStrength": 3.0,
      "Manufacturer": "SIEMENS",
      "ManufacturerModelName": "Prisma_fit",
      "Modality": "MR",
      "NumberOfAverages": 1.0,
      "NumberOfPhaseEncodingSteps": 104,
      "PercentPhaseFieldOfView": 100.0,
      "PercentSampling": 100.0,
      "PerformedProcedureStepStartTime": "121431.390000",
      "PhotometricInterpretation": "MONOCHROME2",
      "PixelBandwidth": 2290.0,
      "PixelRepresentation": 0,
      "PixelSpacing": [2.0, 2.0],
      "ProtocolName": "func_task-shinobi_run-4",
      "RepetitionTime": 1490.0,
      "Rows": 832,
      "SAR": 0.02902111452664,
      "SamplesPerPixel": 1,
      "ScanOptions": "FS",
      "ScanningSequence": "EP",
      "SequenceName": "epfid2d1_104",
      "SequenceVariant": [
        "SK",
        "SS"
],
      "SeriesDescription": "func_task-shinobi_run-4",
      "SeriesNumber": 15,
      "SeriesTime": "140049.348000",
      "SliceLocation": -38.644290798667,
      "SliceThickness": 2.0,
      "SmallestImagePixelValue": 0,
      "SoftwareVersions": "syngo MR E11",
      "SpacingBetweenSlices": 2.0000000904093,
      "SpecificCharacterSet": "ISO_IR 100",
      "StudyID": "1",
      "StudyTime": "121431.294000",
      "TransmitCoilName": "Body",
      "VariableFlipAngleFlag": "N",
      "WindowCenterWidthExplanation": "Algo1",
      "dBdt": 0.0},
    "slices": {}
  },
  "time": {
    "samples": {
      "AcquisitionNumber": [1, 2, 3, 4, 5, 6, 7, 8, 9, 10, 11, 12, 13, 14, 15, 16, 17, 18, 19, 20, 21, 22, 23, 24, 25, 26, 27, 28, 29, 30, 31, 32, 33, 34, 35, 36, 37, 38, 39, 40, 41, 42, 43, 44, 45, 46, 47, 48, 49, 50, 51, 52, 53, 54, 55, 56, 57, 58, 59, 60, 61, 62, 63, 64, 65, 66, 67, 68, 69, 70, 71, 72, 73, 74, 75, 76, 77, 78, 79, 80, 81, 82, 83, 84, 85, 86, 87, 88, 89, 90, 91, 92, 93, 94, 95, 96, 97, 98, 99, 100, 101, 102, 103, 104, 105, 106, 107, 108, 109, 110, 111, 112, 113, 114, 115, 116, 117, 118, 119, 120, 121, 122, 123, 124, 125, 126, 127, 128, 129, 130, 131, 132, 133, 134, 135, 136, 137, 138, 139, 140, 141, 142, 143, 144, 145, 146, 147, 148, 149, 150, 151, 152, 153, 154, 155, 156, 157, 158, 159, 160, 161, 162, 163, 164, 165, 166, 167, 168, 169, 170, 171, 172, 173, 174, 175, 176, 177, 178, 179, 180, 181, 182, 183, 184, 185, 186, 187, 188, 189, 190, 191, 192, 193, 194, 195, 196, 197, 198, 199, 200, 201, 202, 203, 204, 205, 206, 207, 208, 209, 210, 211, 212, 213, 214, 215, 216, 217, 218, 219, 220, 221, 222, 223, 224, 225, 226, 227, 228, 229, 230, 231, 232, 233, 234, 235, 236, 237, 238, 239, 240, 241, 242, 243, 244, 245, 246, 247, 248, 249, 250, 251, 252, 253, 254, 255, 256, 257, 258, 259, 260, 261, 262, 263, 264, 265, 266, 267, 268, 269, 270, 271, 272, 273, 274, 275, 276, 277, 278, 279, 280, 281, 282, 283, 284, 285, 286, 287, 288, 289, 290, 291, 292, 293, 294, 295, 296, 297, 298, 299, 300, 301, 302, 303, 304, 305, 306, 307, 308, 309, 310, 311, 312, 313, 314, 315, 316, 317, 318, 319, 320, 321, 322, 323, 324, 325, 326, 327, 328, 329, 330, 331, 332, 333, 334, 335, 336, 337, 338, 339, 340, 341, 342, 343, 344, 345, 346, 347, 348, 349, 350, 351, 352, 353, 354, 355, 356, 357, 358, 359, 360, 361, 362, 363, 364, 365, 366, 367, 368, 369, 370, 371, 372, 373, 374, 375, 376, 377, 378, 379, 380, 381, 382, 383, 384, 385, 386, 387, 388, 389, 390, 391, 392, 393, 394, 395, 396, 397, 398, 399, 400, 401, 402, 403, 404, 405, 406, 407, 408, 409, 410, 411, 412, 413, 414, 415, 416, 417, 418, 419, 420, 421, 422, 423, 424, 425, 426, 427, 428, 429, 430, 431, 432, 433, 434, 435, 436, 437, 438, 439, 440, 441, 442, 443, 444, 445, 446, 447, 448, 449, 450, 451, 452, 453, 454, 455, 456, 457, 458, 459, 460, 461, 462, 463, 464, 465, 466, 467, 468, 469, 470, 471, 472, 473, 474, 475, 476, 477, 478, 479, 480, 481, 482, 483, 484, 485],
      "AcquisitionTime": ["135929.290000", "135930.780000", "135932.270000", "135933.760000", "135935.250000", "135936.740000", "135938.230000", "135939.720000", "135941.210000", "135942.700000", "135944.190000", "135945.680000", "135947.170000", "135948.660000", "135950.150000", "135951.640000", "135953.130000", "135954.620000", "135956.110000", "135957.600000", "135959.090000", "140000.580000", "140002.070000", "140003.560000", "140005.050000", "140006.540000", "140008.030000", "140009.520000", "140011.010000", "140012.500000", "140013.990000", "140015.480000", "140016.970000", "140018.460000", "140019.950000", "140021.440000", "140022.930000", "140024.420000", "140025.910000", "140027.400000", "140028.890000", "140030.380000", "140031.870000", "140033.360000", "140034.850000", "140036.340000", "140037.830000", "140039.320000", "140040.810000", "140042.300000", "140043.790000", "140045.280000", "140046.770000", "140048.260000", "140049.750000", "140051.240000", "140052.730000", "140054.220000", "140055.710000", "140057.200000", "140058.690000", "140100.180000", "140101.670000", "140103.160000", "140104.650000", "140106.140000", "140107.630000", "140109.120000", "140110.610000", "140112.100000", "140113.590000", "140115.080000", "140116.570000", "140118.060000", "140119.550000", "140121.040000", "140122.530000", "140124.020000", "140125.510000", "140127.000000", "140128.490000", "140129.980000", "140131.470000", "140132.960000", "140134.450000", "140135.940000", "140137.430000", "140138.920000", "140140.410000", "140141.900000", "140143.390000", "140144.880000", "140146.370000", "140147.860000", "140149.350000", "140150.840000", "140152.330000", "140153.820000", "140155.310000", "140156.800000", "140158.290000", "140159.780000", "140201.270000", "140202.760000", "140204.250000", "140205.740000", "140207.230000", "140208.720000", "140210.210000", "140211.700000", "140213.190000", "140214.680000", "140216.170000", "140217.660000", "140219.150000", "140220.640000", "140222.130000", "140223.620000", "140225.110000", "140226.600000", "140228.090000", "140229.580000", "140231.070000", "140232.560000", "140234.050000", "140235.540000", "140237.030000", "140238.520000", "140240.010000", "140241.500000", "140242.990000", "140244.480000", "140245.970000", "140247.460000", "140248.950000", "140250.440000", "140251.930000", "140253.420000", "140254.910000", "140256.400000", "140257.890000", "140259.380000", "140300.870000", "140302.360000", "140303.850000", "140305.340000", "140306.830000", "140308.320000", "140309.810000", "140311.300000", "140312.790000", "140314.280000", "140315.770000", "140317.260000", "140318.750000", "140320.240000", "140321.730000", "140323.220000", "140324.710000", "140326.200000", "140327.690000", "140329.180000", "140330.670000", "140332.160000", "140333.650000", "140335.140000", "140336.630000", "140338.120000", "140339.610000", "140341.100000", "140342.590000", "140344.080000", "140345.570000", "140347.060000", "140348.550000", "140350.040000", "140351.530000", "140353.020000", "140354.510000", "140356.000000", "140357.490000", "140358.980000", "140400.470000", "140401.960000", "140403.450000", "140404.940000", "140406.430000", "140407.920000", "140409.410000", "140410.900000", "140412.390000", "140413.880000", "140415.370000", "140416.860000", "140418.350000", "140419.840000", "140421.330000", "140422.820000", "140424.310000", "140425.800000", "140427.290000", "140428.780000", "140430.270000", "140431.760000", "140433.250000", "140434.740000", "140436.230000", "140437.720000", "140439.210000", "140440.700000", "140442.190000", "140443.680000", "140445.170000", "140446.660000", "140448.150000", "140449.640000", "140451.130000", "140452.620000", "140454.110000", "140455.600000", "140457.090000", "140458.580000", "140500.070000", "140501.560000", "140503.050000", "140504.540000", "140506.030000", "140507.520000", "140509.010000", "140510.500000", "140511.990000", "140513.480000", "140514.970000", "140516.460000", "140517.950000", "140519.440000", "140520.930000", "140522.420000", "140523.910000", "140525.400000", "140526.890000", "140528.380000", "140529.870000", "140531.360000", "140532.850000", "140534.340000", "140535.830000", "140537.320000", "140538.810000", "140540.300000", "140541.790000", "140543.280000", "140544.770000", "140546.260000", "140547.750000", "140549.240000", "140550.730000", "140552.220000", "140553.710000", "140555.200000", "140556.690000", "140558.180000", "140559.670000", "140601.160000", "140602.650000", "140604.140000", "140605.630000", "140607.120000", "140608.610000", "140610.100000", "140611.590000", "140613.080000", "140614.570000", "140616.060000", "140617.550000", "140619.040000", "140620.530000", "140622.020000", "140623.510000", "140625.000000", "140626.490000", "140627.980000", "140629.470000", "140630.960000", "140632.450000", "140633.940000", "140635.430000", "140636.920000", "140638.410000", "140639.900000", "140641.390000", "140642.880000", "140644.370000", "140645.860000", "140647.350000", "140648.840000", "140650.330000", "140651.820000", "140653.310000", "140654.800000", "140656.290000", "140657.780000", "140659.270000", "140700.760000", "140702.250000", "140703.740000", "140705.230000", "140706.720000", "140708.210000", "140709.700000", "140711.190000", "140712.680000", "140714.170000", "140715.660000", "140717.150000", "140718.640000", "140720.130000", "140721.620000", "140723.110000", "140724.600000", "140726.090000", "140727.580000", "140729.070000", "140730.560000", "140732.050000", "140733.540000", "140735.030000", "140736.520000", "140738.010000", "140739.500000", "140740.990000", "140742.480000", "140743.970000", "140745.460000", "140746.950000", "140748.440000", "140749.930000", "140751.420000", "140752.910000", "140754.400000", "140755.890000", "140757.380000", "140758.870000", "140800.360000", "140801.850000", "140803.340000", "140804.830000", "140806.320000", "140807.810000", "140809.300000", "140810.790000", "140812.280000", "140813.770000", "140815.260000", "140816.750000", "140818.240000", "140819.730000", "140821.220000", "140822.710000", "140824.200000", "140825.690000", "140827.180000", "140828.670000", "140830.160000", "140831.650000", "140833.140000", "140834.630000", "140836.120000", "140837.610000", "140839.100000", "140840.590000", "140842.080000", "140843.570000", "140845.060000", "140846.550000", "140848.040000", "140849.530000", "140851.020000", "140852.510000", "140854.000000", "140855.490000", "140856.980000", "140858.470000", "140859.960000", "140901.450000", "140902.940000", "140904.430000", "140905.920000", "140907.410000", "140908.900000", "140910.390000", "140911.880000", "140913.370000", "140914.860000", "140916.350000", "140917.840000", "140919.330000", "140920.820000", "140922.310000", "140923.800000", "140925.290000", "140926.780000", "140928.270000", "140929.760000", "140931.250000", "140932.740000", "140934.230000", "140935.720000", "140937.210000", "140938.700000", "140940.190000", "140941.680000", "140943.170000", "140944.660000", "140946.150000", "140947.640000", "140949.130000", "140950.620000", "140952.110000", "140953.600000", "140955.090000", "140956.580000", "140958.070000", "140959.560000", "141001.050000", "141002.540000", "141004.030000", "141005.520000", "141007.010000", "141008.500000", "141009.990000", "141011.480000", "141012.970000", "141014.460000", "141015.950000", "141017.440000", "141018.930000", "141020.420000", "141021.910000", "141023.400000", "141024.890000", "141026.380000", "141027.870000", "141029.360000", "141030.850000", "141032.340000", "141033.830000", "141035.320000", "141036.810000", "141038.300000", "141039.790000", "141041.280000", "141042.770000", "141044.260000", "141045.750000", "141047.240000", "141048.730000", "141050.220000", "141051.710000", "141053.200000", "141054.690000", "141056.180000", "141057.670000", "141059.160000", "141100.650000", "141102.140000", "141103.630000", "141105.120000", "141106.610000", "141108.100000", "141109.590000", "141111.080000", "141112.570000", "141114.060000", "141115.550000", "141117.040000", "141118.530000", "141120.020000", "141121.510000", "141123.000000", "141124.490000", "141125.980000", "141127.470000", "141128.960000", "141130.450000"],
      "ContentTime": ["140049.351000", "140049.354000", "140049.357000", "140049.364000", "140049.367000", "140049.370000", "140049.380000", "140049.383000", "140049.386000", "140049.388000", "140049.391000", "140049.394000", "140049.397000", "140049.400000", "140049.403000", "140049.406000", "140049.409000", "140049.412000", "140049.415000", "140049.418000", "140049.421000", "140049.424000", "140049.426000", "140049.429000", "140049.432000", "140049.435000", "140109.316000", "140109.319000", "140109.322000", "140109.325000", "140109.328000", "140109.331000", "140109.342000", "140109.345000", "140109.348000", "140109.351000", "140109.353000", "140109.356000", "140109.359000", "140109.362000", "140109.365000", "140109.368000", "140109.371000", "140109.374000", "140109.377000", "140109.380000", "140129.316000", "140129.319000", "140129.322000", "140129.325000", "140129.328000", "140129.331000", "140129.334000", "140129.336000", "140129.339000", "140129.342000", "140129.345000", "140129.348000", "140129.351000", "140129.354000", "140129.357000", "140129.360000", "140129.363000", "140129.366000", "140129.368000", "140129.371000", "140149.317000", "140149.320000", "140149.323000", "140149.326000", "140149.329000", "140149.332000", "140149.335000", "140149.338000", "140149.341000", "140149.343000", "140149.346000", "140149.349000", "140149.352000", "140149.355000", "140149.358000", "140149.361000", "140149.364000", "140149.367000", "140149.375000", "140149.378000", "140149.381000", "140229.317000", "140229.320000", "140229.323000", "140229.326000", "140229.329000", "140229.332000", "140229.334000", "140229.338000", "140229.340000", "140229.343000", "140229.346000", "140229.349000", "140229.352000", "140229.355000", "140229.358000", "140229.361000", "140229.364000", "140229.367000", "140229.370000", "140229.373000", "140229.376000", "140229.379000", "140229.382000", "140229.385000", "140229.388000", "140229.391000", "140229.393000", "140229.396000", "140229.399000", "140229.402000", "140229.405000", "140229.408000", "140229.411000", "140249.316000", "140249.319000", "140249.322000", "140249.325000", "140249.328000", "140249.331000", "140249.334000", "140249.337000", "140249.340000", "140249.353000", "140249.356000", "140249.359000", "140249.362000", "140329.316000", "140329.319000", "140329.322000", "140329.325000", "140329.328000", "140329.331000", "140329.334000", "140329.337000", "140329.340000", "140329.343000", "140329.346000", "140329.349000", "140329.351000", "140329.355000", "140329.357000", "140329.360000", "140329.363000", "140329.366000", "140329.369000", "140329.372000", "140329.375000", "140329.378000", "140329.381000", "140329.384000", "140329.387000", "140329.390000", "140329.393000", "140409.317000", "140409.320000", "140409.323000", "140409.326000", "140409.329000", "140409.332000", "140409.335000", "140409.338000", "140409.341000", "140409.343000", "140409.346000", "140409.349000", "140409.352000", "140409.355000", "140409.358000", "140409.361000", "140409.364000", "140409.367000", "140409.370000", "140409.373000", "140409.376000", "140409.379000", "140409.382000", "140409.385000", "140409.388000", "140409.390000", "140409.393000", "140449.317000", "140449.320000", "140449.323000", "140449.326000", "140449.329000", "140449.332000", "140449.335000", "140449.338000", "140449.341000", "140449.344000", "140449.347000", "140449.350000", "140449.353000", "140449.356000", "140449.358000", "140449.361000", "140449.364000", "140449.367000", "140449.370000", "140449.373000", "140449.376000", "140449.379000", "140449.382000", "140449.385000", "140449.388000", "140449.391000", "140449.394000", "140529.316000", "140529.320000", "140529.323000", "140529.326000", "140529.329000", "140529.332000", "140529.334000", "140529.337000", "140529.352000", "140529.355000", "140529.357000", "140529.360000", "140529.363000", "140529.366000", "140529.369000", "140529.372000", "140529.375000", "140529.378000", "140529.381000", "140529.384000", "140529.387000", "140529.390000", "140529.393000", "140529.396000", "140529.399000", "140529.402000", "140609.316000", "140609.319000", "140609.322000", "140609.325000", "140609.328000", "140609.331000", "140609.334000", "140609.337000", "140609.340000", "140609.343000", "140609.346000", "140609.348000", "140609.351000", "140609.354000", "140609.357000", "140609.360000", "140609.363000", "140609.366000", "140609.369000", "140609.372000", "140609.375000", "140609.378000", "140609.381000", "140609.384000", "140609.387000", "140609.389000", "140609.392000", "140649.317000", "140649.320000", "140649.323000", "140649.326000", "140649.329000", "140649.332000", "140649.335000", "140649.338000", "140649.341000", "140649.344000", "140649.347000", "140649.350000", "140649.353000", "140649.356000", "140649.359000", "140649.362000", "140649.365000", "140649.368000", "140649.371000", "140649.374000", "140649.377000", "140649.379000", "140649.382000", "140649.385000", "140649.388000", "140649.391000", "140649.394000", "140729.316000", "140729.320000", "140729.323000", "140729.326000", "140729.329000", "140729.332000", "140729.335000", "140729.338000", "140729.341000", "140729.344000", "140729.347000", "140729.351000", "140729.354000", "140729.357000", "140729.360000", "140729.363000", "140729.366000", "140729.369000", "140729.372000", "140729.375000", "140729.378000", "140729.381000", "140729.385000", "140729.387000", "140729.391000", "140729.393000", "140729.397000", "140809.316000", "140809.319000", "140809.322000", "140809.325000", "140809.328000", "140809.331000", "140809.334000", "140809.337000", "140809.340000", "140809.343000", "140809.346000", "140809.349000", "140809.352000", "140809.355000", "140809.358000", "140809.361000", "140809.363000", "140809.366000", "140809.369000", "140809.372000", "140809.375000", "140809.378000", "140809.381000", "140809.384000", "140809.387000", "140809.390000", "140809.393000", "140849.317000", "140849.320000", "140849.323000", "140849.326000", "140849.329000", "140849.332000", "140849.335000", "140849.338000", "140849.341000", "140849.344000", "140849.347000", "140849.350000", "140849.353000", "140849.356000", "140849.358000", "140849.361000", "140849.364000", "140849.367000", "140849.370000", "140849.373000", "140849.376000", "140849.379000", "140849.382000", "140849.385000", "140849.388000", "140849.391000", "140849.394000", "140929.317000", "140929.320000", "140929.324000", "140929.327000", "140929.330000", "140929.334000", "140929.338000", "140929.341000", "140929.344000", "140929.347000", "140929.350000", "140929.353000", "140929.356000", "140929.359000", "140929.362000", "140929.365000", "140929.368000", "140929.371000", "140929.374000", "140929.377000", "140929.380000", "140929.383000", "140929.386000", "140929.389000", "140929.392000", "140929.394000", "141009.316000", "141009.319000", "141009.322000", "141009.325000", "141009.328000", "141009.331000", "141009.334000", "141009.337000", "141009.340000", "141009.343000", "141009.346000", "141009.349000", "141009.352000", "141009.355000", "141009.358000", "141009.360000", "141009.363000", "141009.366000", "141009.369000", "141009.372000", "141009.375000", "141009.378000", "141009.381000", "141009.384000", "141009.387000", "141009.390000", "141009.393000", "141049.316000", "141049.319000", "141049.323000", "141049.326000", "141049.329000", "141049.332000", "141049.335000", "141049.338000", "141049.341000", "141049.344000", "141049.347000", "141049.350000", "141049.353000", "141049.356000", "141049.359000", "141049.361000", "141049.365000", "141049.367000", "141049.370000", "141049.373000", "141049.376000", "141049.379000", "141049.382000", "141049.385000", "141049.388000", "141049.391000", "141049.394000", "141129.317000", "141129.320000", "141129.323000", "141129.326000", "141129.329000", "141129.332000", "141129.335000", "141129.338000", "141129.341000", "141129.344000", "141129.347000", "141129.350000", "141129.353000", "141129.356000", "141129.359000", "141129.362000", "141129.365000", "141129.368000", "141129.370000", "141129.374000", "141129.377000", "141129.379000", "141129.382000", "141129.385000", "141129.388000", "141129.391000", "141129.394000", "141133.276000", "141133.279000", "141133.282000"],
