{
  "AcquisitionMatrixPE": 104,
  "AcquisitionNumber": 1,
  "AcquisitionTime": "13:44:11.657500",
  "BandwidthPerPixelPhaseEncode": 17.17,
  "BaseResolution": 104,
  "BodyPartExamined": "BRAIN",
  "CoilString": "HC1-7;NC1_2",
  "ConsistencyInfo": "N4_VE11C_LATEST_20160120",
  "ConversionSoftware": "dcm2niix",
  "ConversionSoftwareVersion": "v1.0.20190902",
  "DerivedVendorReportedEchoSpacing": 0.000560011,
  "DeviceSerialNumber": "167006",
  "DwellTime": 2.1e-06,
  "EchoTime": 0.037,
  "EchoTrainLength": 104,
  "EffectiveEchoSpacing": 0.000560011,
  "FlipAngle": 52,
  "ImageComments": "Unaliased_MB4_PE3_LB",
  "ImageOrientationPatientDICOM": [0.999264, 0.00781314, -0.0375507, -0.0163955, 0.972089, -0.234041],
  "ImageType": [
    "ORIGINAL",
    "PRIMARY",
    "M",
    "MB",
    "ND",
    "MOSAIC"
],
  "ImagingFrequency": 123.259,
  "InPlanePhaseEncodingDirectionDICOM": "COL",
  "InstitutionAddress": "Chemin_Queen-Mary_4565_Montreal_District_CA_H3W_1W5",
  "InstitutionName": "IUGM",
  "InstitutionalDepartmentName": "Department",
  "MRAcquisitionType": "2D",
  "MagneticFieldStrength": 3,
  "Manufacturer": "Siemens",
  "ManufacturersModelName": "Prisma_fit",
  "Modality": "MR",
  "MultibandAccelerationFactor": 4,
  "PartialFourier": 1,
  "PatientPosition": "HFS",
  "PercentPhaseFOV": 100,
  "PhaseEncodingDirection": "j",
  "PhaseEncodingSteps": 104,
  "PhaseResolution": 1,
  "PixelBandwidth": 2290,
  "ProcedureStepDescription": "games_shinobi",
  "ProtocolName": "func_task-shinobi_run-3",
  "PulseSequenceDetails": "%CustomerSeq%_cmrr_mbep2d_bold",
  "ReceiveCoilActiveElements": "HC1-7;NC1,2",
  "ReceiveCoilName": "HeadNeck_64",
  "ReconMatrixPE": 104,
  "RepetitionTime": 1.49,
  "SAR": 0.0290211,
  "ScanOptions": "FS",
  "ScanningSequence": "EP",
  "SequenceName": "epfid2d1_104",
  "SequenceVariant": "SK_SS",
  "SeriesDescription": "func_task-shinobi_run-3",
  "SeriesNumber": 13,
  "ShimSetting": [600, -7238, -8833, 634, -71, -244, 8, 40],
  "SliceThickness": 2,
  "SliceTiming": [0, 0.785, 0.0975, 0.8825, 0.1975, 0.98, 0.295, 1.0775, 0.3925, 1.1775, 0.49, 1.275, 0.5875, 1.3725, 0.6875, 0, 0.785, 0.0975, 0.8825, 0.1975, 0.98, 0.295, 1.0775, 0.3925, 1.1775, 0.49, 1.275, 0.5875, 1.3725, 0.6875, 0, 0.785, 0.0975, 0.8825, 0.1975, 0.98, 0.295, 1.0775, 0.3925, 1.1775, 0.49, 1.275, 0.5875, 1.3725, 0.6875, 0, 0.785, 0.0975, 0.8825, 0.1975, 0.98, 0.295, 1.0775, 0.3925, 1.1775, 0.49, 1.275, 0.5875, 1.3725, 0.6875],
  "SoftwareVersions": "syngo_MR_E11",
  "SpacingBetweenSlices": 2,
  "StationName": "MRC35049",
  "TaskName": "shinobi",
  "TotalReadoutTime": 0.0576811,
  "TxRefAmp": 216.597,
  "WipMemBlock": "76864659-255c-4f77-a259-b76071984686||Sequence: R016 ve11c/master r/e634e98; Dec 19 2017 11:00:25 by eja",
  "dcmmeta_affine": [
    [-1.9985283613204956, -0.032791055738925934, -0.06934808194637299, 106.45492553710938],
    [-0.015626277774572372, 1.9441770315170288, -0.46896839141845703, -71.63530731201172],
    [-0.07510145753622055, 0.4680814743041992, 1.9430028200149536, -53.268497467041016],
    [0.0, 0.0, 0.0, 1.0]
],
  "dcmmeta_reorient_transform": [
    [0.0, -1.0, 0.0, 103.0],
    [1.0, 0.0, 0.0, 0.0],
    [0.0, 0.0, 1.0, 0.0],
    [0.0, 0.0, 0.0, 1.0]
],
  "dcmmeta_shape": [104, 104, 60, 533],
  "dcmmeta_slice_dim": 2,
  "dcmmeta_version": 0.6,
  "global": {
    "const": {
      "AcquisitionMatrix": [104, 0, 0, 104],
      "AngioFlag": "N",
      "BitsAllocated": 16,
      "BitsStored": 16,
      "BodyPartExamined": "BRAIN",
      "Columns": 832,
      "EchoNumbers": 1,
      "EchoTime": 37.0,
      "EchoTrainLength": 104,
      "FlipAngle": 52.0,
      "HighBit": 15,
      "ImageOrientationPatient": [0.99926417809707, 0.00781313871481, -0.0375507288266, -0.0163955269512, 0.97208853548965, -0.2340407354833],
      "ImagePositionPatient": [-818.60582602256, -841.98334735706, 192.66248163719],
      "ImageType": [
        "ORIGINAL",
        "PRIMARY",
        "M",
        "MB",
        "ND",
        "MOSAIC"
],
      "ImagedNucleus": "1H",
      "ImagingFrequency": 123.259001,
      "InPlanePhaseEncodingDirection": "COL",
      "MRAcquisitionType": "2D",
      "MagneticFieldStrength": 3.0,
      "Manufacturer": "SIEMENS",
      "ManufacturerModelName": "Prisma_fit",
      "Modality": "MR",
      "NumberOfAverages": 1.0,
      "NumberOfPhaseEncodingSteps": 104,
      "PercentPhaseFieldOfView": 100.0,
      "PercentSampling": 100.0,
      "PerformedProcedureStepStartTime": "121431.390000",
      "PhotometricInterpretation": "MONOCHROME2",
      "PixelBandwidth": 2290.0,
      "PixelRepresentation": 0,
      "PixelSpacing": [2.0, 2.0],
      "ProtocolName": "func_task-shinobi_run-3",
      "RepetitionTime": 1490.0,
      "Rows": 832,
      "SAR": 0.02902111452664,
      "SamplesPerPixel": 1,
      "ScanOptions": "FS",
      "ScanningSequence": "EP",
      "SequenceName": "epfid2d1_104",
      "SequenceVariant": [
        "SK",
        "SS"
],
      "SeriesDescription": "func_task-shinobi_run-3",
      "SeriesNumber": 13,
      "SeriesTime": "134534.050000",
      "SliceLocation": -38.644290798667,
      "SliceThickness": 2.0,
      "SmallestImagePixelValue": 0,
      "SoftwareVersions": "syngo MR E11",
      "SpacingBetweenSlices": 2.0000000904093,
      "SpecificCharacterSet": "ISO_IR 100",
      "StudyID": "1",
      "StudyTime": "121431.294000",
      "TransmitCoilName": "Body",
      "VariableFlipAngleFlag": "N",
      "WindowCenterWidthExplanation": "Algo1",
      "dBdt": 0.0},
    "slices": {}
  },
  "time": {
    "samples": {
      "AcquisitionNumber": [1, 2, 3, 4, 5, 6, 7, 8, 9, 10, 11, 12, 13, 14, 15, 16, 17, 18, 19, 20, 21, 22, 23, 24, 25, 26, 27, 28, 29, 30, 31, 32, 33, 34, 35, 36, 37, 38, 39, 40, 41, 42, 43, 44, 45, 46, 47, 48, 49, 50, 51, 52, 53, 54, 55, 56, 57, 58, 59, 60, 61, 62, 63, 64, 65, 66, 67, 68, 69, 70, 71, 72, 73, 74, 75, 76, 77, 78, 79, 80, 81, 82, 83, 84, 85, 86, 87, 88, 89, 90, 91, 92, 93, 94, 95, 96, 97, 98, 99, 100, 101, 102, 103, 104, 105, 106, 107, 108, 109, 110, 111, 112, 113, 114, 115, 116, 117, 118, 119, 120, 121, 122, 123, 124, 125, 126, 127, 128, 129, 130, 131, 132, 133, 134, 135, 136, 137, 138, 139, 140, 141, 142, 143, 144, 145, 146, 147, 148, 149, 150, 151, 152, 153, 154, 155, 156, 157, 158, 159, 160, 161, 162, 163, 164, 165, 166, 167, 168, 169, 170, 171, 172, 173, 174, 175, 176, 177, 178, 179, 180, 181, 182, 183, 184, 185, 186, 187, 188, 189, 190, 191, 192, 193, 194, 195, 196, 197, 198, 199, 200, 201, 202, 203, 204, 205, 206, 207, 208, 209, 210, 211, 212, 213, 214, 215, 216, 217, 218, 219, 220, 221, 222, 223, 224, 225, 226, 227, 228, 229, 230, 231, 232, 233, 234, 235, 236, 237, 238, 239, 240, 241, 242, 243, 244, 245, 246, 247, 248, 249, 250, 251, 252, 253, 254, 255, 256, 257, 258, 259, 260, 261, 262, 263, 264, 265, 266, 267, 268, 269, 270, 271, 272, 273, 274, 275, 276, 277, 278, 279, 280, 281, 282, 283, 284, 285, 286, 287, 288, 289, 290, 291, 292, 293, 294, 295, 296, 297, 298, 299, 300, 301, 302, 303, 304, 305, 306, 307, 308, 309, 310, 311, 312, 313, 314, 315, 316, 317, 318, 319, 320, 321, 322, 323, 324, 325, 326, 327, 328, 329, 330, 331, 332, 333, 334, 335, 336, 337, 338, 339, 340, 341, 342, 343, 344, 345, 346, 347, 348, 349, 350, 351, 352, 353, 354, 355, 356, 357, 358, 359, 360, 361, 362, 363, 364, 365, 366, 367, 368, 369, 370, 371, 372, 373, 374, 375, 376, 377, 378, 379, 380, 381, 382, 383, 384, 385, 386, 387, 388, 389, 390, 391, 392, 393, 394, 395, 396, 397, 398, 399, 400, 401, 402, 403, 404, 405, 406, 407, 408, 409, 410, 411, 412, 413, 414, 415, 416, 417, 418, 419, 420, 421, 422, 423, 424, 425, 426, 427, 428, 429, 430, 431, 432, 433, 434, 435, 436, 437, 438, 439, 440, 441, 442, 443, 444, 445, 446, 447, 448, 449, 450, 451, 452, 453, 454, 455, 456, 457, 458, 459, 460, 461, 462, 463, 464, 465, 466, 467, 468, 469, 470, 471, 472, 473, 474, 475, 476, 477, 478, 479, 480, 481, 482, 483, 484, 485, 486, 487, 488, 489, 490, 491, 492, 493, 494, 495, 496, 497, 498, 499, 500, 501, 502, 503, 504, 505, 506, 507, 508, 509, 510, 511, 512, 513, 514, 515, 516, 517, 518, 519, 520, 521, 522, 523, 524, 525, 526, 527, 528, 529, 530, 531, 532, 533],
      "AcquisitionTime": ["134411.657500", "134413.147500", "134414.637500", "134416.127500", "134417.617500", "134419.107500", "134420.597500", "134422.087500", "134423.577500", "134425.067500", "134426.557500", "134428.047500", "134429.537500", "134431.027500", "134432.517500", "134434.007500", "134435.497500", "134436.987500", "134438.477500", "134439.967500", "134441.457500", "134442.947500", "134444.437500", "134445.927500", "134447.417500", "134448.907500", "134450.397500", "134451.887500", "134453.377500", "134454.867500", "134456.357500", "134457.847500", "134459.337500", "134500.827500", "134502.317500", "134503.807500", "134505.297500", "134506.787500", "134508.277500", "134509.767500", "134511.257500", "134512.747500", "134514.237500", "134515.727500", "134517.217500", "134518.707500", "134520.197500", "134521.687500", "134523.177500", "134524.667500", "134526.157500", "134527.647500", "134529.137500", "134530.627500", "134532.117500", "134533.607500", "134535.097500", "134536.587500", "134538.077500", "134539.567500", "134541.057500", "134542.547500", "134544.037500", "134545.527500", "134547.017500", "134548.507500", "134549.997500", "134551.487500", "134552.977500", "134554.467500", "134555.957500", "134557.447500", "134558.937500", "134600.427500", "134601.917500", "134603.407500", "134604.897500", "134606.387500", "134607.877500", "134609.367500", "134610.857500", "134612.347500", "134613.837500", "134615.327500", "134616.817500", "134618.307500", "134619.797500", "134621.287500", "134622.777500", "134624.267500", "134625.757500", "134627.247500", "134628.737500", "134630.227500", "134631.717500", "134633.207500", "134634.697500", "134636.187500", "134637.677500", "134639.167500", "134640.657500", "134642.147500", "134643.637500", "134645.127500", "134646.617500", "134648.107500", "134649.597500", "134651.087500", "134652.577500", "134654.067500", "134655.557500", "134657.047500", "134658.537500", "134700.027500", "134701.517500", "134703.007500", "134704.497500", "134705.987500", "134707.477500", "134708.967500", "134710.457500", "134711.947500", "134713.437500", "134714.927500", "134716.417500", "134717.907500", "134719.397500", "134720.887500", "134722.377500", "134723.867500", "134725.357500", "134726.847500", "134728.337500", "134729.827500", "134731.317500", "134732.807500", "134734.297500", "134735.787500", "134737.277500", "134738.767500", "134740.257500", "134741.747500", "134743.237500", "134744.727500", "134746.217500", "134747.707500", "134749.197500", "134750.687500", "134752.177500", "134753.667500", "134755.157500", "134756.647500", "134758.137500", "134759.627500", "134801.117500", "134802.607500", "134804.097500", "134805.587500", "134807.077500", "134808.567500", "134810.057500", "134811.547500", "134813.037500", "134814.527500", "134816.017500", "134817.507500", "134818.997500", "134820.487500", "134821.977500", "134823.467500", "134824.957500", "134826.447500", "134827.937500", "134829.427500", "134830.917500", "134832.407500", "134833.897500", "134835.387500", "134836.877500", "134838.367500", "134839.857500", "134841.347500", "134842.837500", "134844.327500", "134845.817500", "134847.307500", "134848.797500", "134850.287500", "134851.777500", "134853.267500", "134854.757500", "134856.247500", "134857.737500", "134859.227500", "134900.717500", "134902.207500", "134903.697500", "134905.187500", "134906.677500", "134908.167500", "134909.657500", "134911.147500", "134912.637500", "134914.127500", "134915.617500", "134917.107500", "134918.597500", "134920.087500", "134921.577500", "134923.067500", "134924.557500", "134926.047500", "134927.537500", "134929.027500", "134930.517500", "134932.007500", "134933.497500", "134934.987500", "134936.477500", "134937.967500", "134939.457500", "134940.947500", "134942.437500", "134943.927500", "134945.417500", "134946.907500", "134948.397500", "134949.887500", "134951.377500", "134952.867500", "134954.357500", "134955.847500", "134957.337500", "134958.827500", "135000.317500", "135001.807500", "135003.297500", "135004.787500", "135006.277500", "135007.767500", "135009.257500", "135010.747500", "135012.237500", "135013.727500", "135015.217500", "135016.707500", "135018.197500", "135019.687500", "135021.177500", "135022.667500", "135024.157500", "135025.647500", "135027.137500", "135028.627500", "135030.117500", "135031.607500", "135033.097500", "135034.587500", "135036.077500", "135037.567500", "135039.057500", "135040.547500", "135042.037500", "135043.527500", "135045.017500", "135046.507500", "135047.997500", "135049.487500", "135050.977500", "135052.467500", "135053.957500", "135055.447500", "135056.937500", "135058.427500", "135059.917500", "135101.407500", "135102.897500", "135104.387500", "135105.877500", "135107.367500", "135108.857500", "135110.347500", "135111.837500", "135113.327500", "135114.817500", "135116.307500", "135117.797500", "135119.287500", "135120.777500", "135122.267500", "135123.757500", "135125.247500", "135126.737500", "135128.227500", "135129.717500", "135131.207500", "135132.697500", "135134.187500", "135135.677500", "135137.167500", "135138.657500", "135140.147500", "135141.637500", "135143.127500", "135144.617500", "135146.107500", "135147.597500", "135149.087500", "135150.577500", "135152.067500", "135153.557500", "135155.047500", "135156.537500", "135158.027500", "135159.517500", "135201.007500", "135202.497500", "135203.987500", "135205.477500", "135206.967500", "135208.457500", "135209.947500", "135211.437500", "135212.927500", "135214.417500", "135215.907500", "135217.397500", "135218.887500", "135220.377500", "135221.867500", "135223.357500", "135224.847500", "135226.337500", "135227.827500", "135229.317500", "135230.807500", "135232.297500", "135233.787500", "135235.277500", "135236.767500", "135238.257500", "135239.747500", "135241.237500", "135242.727500", "135244.217500", "135245.707500", "135247.197500", "135248.687500", "135250.177500", "135251.667500", "135253.157500", "135254.647500", "135256.137500", "135257.627500", "135259.117500", "135300.607500", "135302.097500", "135303.587500", "135305.077500", "135306.567500", "135308.057500", "135309.547500", "135311.037500", "135312.527500", "135314.017500", "135315.507500", "135316.997500", "135318.487500", "135319.977500", "135321.467500", "135322.957500", "135324.447500", "135325.937500", "135327.427500", "135328.917500", "135330.407500", "135331.897500", "135333.387500", "135334.877500", "135336.367500", "135337.857500", "135339.347500", "135340.837500", "135342.327500", "135343.817500", "135345.307500", "135346.797500", "135348.287500", "135349.777500", "135351.267500", "135352.757500", "135354.247500", "135355.737500", "135357.227500", "135358.717500", "135400.207500", "135401.697500", "135403.187500", "135404.677500", "135406.167500", "135407.657500", "135409.147500", "135410.637500", "135412.127500", "135413.617500", "135415.107500", "135416.597500", "135418.087500", "135419.577500", "135421.067500", "135422.557500", "135424.047500", "135425.537500", "135427.027500", "135428.517500", "135430.007500", "135431.497500", "135432.987500", "135434.477500", "135435.967500", "135437.457500", "135438.947500", "135440.437500", "135441.927500", "135443.417500", "135444.907500", "135446.397500", "135447.887500", "135449.377500", "135450.867500", "135452.357500", "135453.847500", "135455.337500", "135456.827500", "135458.317500", "135459.807500", "135501.297500", "135502.787500", "135504.277500", "135505.767500", "135507.257500", "135508.747500", "135510.237500", "135511.727500", "135513.217500", "135514.707500", "135516.197500", "135517.687500", "135519.177500", "135520.667500", "135522.157500", "135523.647500", "135525.137500", "135526.627500", "135528.117500", "135529.607500", "135531.097500", "135532.587500", "135534.077500", "135535.567500", "135537.057500", "135538.547500", "135540.037500", "135541.527500", "135543.017500", "135544.507500", "135545.997500", "135547.487500", "135548.977500", "135550.467500", "135551.957500", "135553.447500", "135554.937500", "135556.427500", "135557.917500", "135559.407500", "135600.897500", "135602.387500", "135603.877500", "135605.367500", "135606.857500", "135608.347500", "135609.837500", "135611.327500", "135612.817500", "135614.307500", "135615.797500", "135617.287500", "135618.777500", "135620.267500", "135621.757500", "135623.247500", "135624.737500", "135626.227500", "135627.717500", "135629.207500", "135630.697500", "135632.187500", "135633.677500", "135635.167500", "135636.657500", "135638.147500", "135639.637500", "135641.127500", "135642.617500", "135644.107500", "135645.597500", "135647.087500", "135648.577500", "135650.067500", "135651.557500", "135653.047500", "135654.537500", "135656.027500", "135657.517500", "135659.007500", "135700.497500", "135701.987500", "135703.477500", "135704.967500", "135706.457500", "135707.947500", "135709.437500", "135710.927500", "135712.417500", "135713.907500", "135715.397500", "135716.887500", "135718.377500", "135719.867500", "135721.357500", "135722.847500", "135724.337500"],
      "ContentTime": ["134534.053000", "134534.062000", "134534.065000", "134534.068000", "134534.071000", "134534.074000", "134534.077000", "134534.080000", "134534.083000", "134534.086000", "134534.089000", "134534.092000", "134534.095000", "134534.098000", "134534.101000", "134534.103000", "134534.107000", "134534.109000", "134534.112000", "134534.115000", "134534.118000", "134534.121000", "134534.124000", "134534.127000", "134534.130000", "134534.133000", "134534.136000", "134534.139000", "134554.014000", "134554.017000", "134554.026000", "134554.029000", "134554.032000", "134554.034000", "134554.037000", "134554.040000", "134554.043000", "134554.046000", "134554.049000", "134554.052000", "134554.055000", "134554.058000", "134554.061000", "134554.064000", "134554.067000", "134554.070000", "134554.073000", "134554.076000", "134614.014000", "134614.017000", "134614.020000", "134614.023000", "134614.026000", "134614.029000", "134614.032000", "134614.035000", "134614.038000", "134614.040000", "134614.043000", "134614.046000", "134614.049000", "134614.053000", "134614.057000", "134614.060000", "134614.063000", "134614.066000", "134614.068000", "134614.071000", "134634.013000", "134634.016000", "134634.019000", "134634.022000", "134634.025000", "134634.028000", "134634.031000", "134634.034000", "134634.037000", "134634.040000", "134634.042000", "134634.045000", "134634.048000", "134634.051000", "134634.054000", "134634.057000", "134634.060000", "134634.063000", "134634.066000", "134634.069000", "134654.013000", "134654.016000", "134654.019000", "134654.022000", "134654.025000", "134654.028000", "134654.031000", "134654.034000", "134654.037000", "134654.039000", "134654.047000", "134654.050000", "134654.052000", "134654.055000", "134654.058000", "134654.061000", "134654.064000", "134654.067000", "134654.070000", "134654.073000", "134734.014000", "134734.017000", "134734.020000", "134734.023000", "134734.026000", "134734.029000", "134734.032000", "134734.035000", "134734.054000", "134734.057000", "134734.060000", "134734.063000", "134734.072000", "134734.075000", "134734.079000", "134734.082000", "134734.084000", "134734.088000", "134734.090000", "134734.093000", "134734.096000", "134734.099000", "134734.102000", "134734.105000", "134734.108000", "134734.111000", "134734.114000", "134814.014000", "134814.017000", "134814.020000", "134814.023000", "134814.026000", "134814.029000", "134814.032000", "134814.035000", "134814.038000", "134814.041000", "134814.044000", "134814.047000", "134814.050000", "134814.053000", "134814.055000", "134814.058000", "134814.061000", "134814.064000", "134814.067000", "134814.070000", "134814.073000", "134814.076000", "134814.079000", "134814.082000", "134814.085000", "134814.088000", "134814.091000", "134854.013000", "134854.016000", "134854.019000", "134854.022000", "134854.025000", "134854.028000", "134854.031000", "134854.034000", "134854.037000", "134854.040000", "134854.043000", "134854.046000", "134854.049000", "134854.051000", "134854.054000", "134854.057000", "134854.060000", "134854.063000", "134854.066000", "134854.069000", "134854.072000", "134854.075000", "134854.078000", "134854.081000", "134854.084000", "134854.087000", "134854.090000", "134934.014000", "134934.017000", "134934.020000", "134934.023000", "134934.026000", "134934.029000", "134934.032000", "134934.035000", "134934.038000", "134934.041000", "134934.044000", "134934.046000", "134934.049000", "134934.052000", "134934.055000", "134934.058000", "134934.061000", "134934.064000", "134934.067000", "134934.070000", "134934.073000", "134934.076000", "134934.079000", "134934.082000", "134934.085000", "134934.088000", "134934.099000", "135014.014000", "135014.017000", "135014.020000", "135014.023000", "135014.026000", "135014.029000", "135014.032000", "135014.035000", "135014.038000", "135014.041000", "135014.044000", "135014.047000", "135014.050000", "135014.053000", "135014.056000", "135014.059000", "135014.062000", "135014.065000", "135014.068000", "135014.071000", "135014.074000", "135014.078000", "135014.081000", "135014.084000", "135014.086000", "135014.090000", "135054.014000", "135054.017000", "135054.020000", "135054.023000", "135054.026000", "135054.029000", "135054.032000", "135054.035000", "135054.038000", "135054.041000", "135054.044000", "135054.047000", "135054.050000", "135054.052000", "135054.055000", "135054.058000", "135054.061000", "135054.064000", "135054.067000", "135054.070000", "135054.073000", "135054.076000", "135054.079000", "135054.082000", "135054.085000", "135054.088000", "135054.091000", "135134.013000", "135134.016000", "135134.019000", "135134.022000", "135134.025000", "135134.028000", "135134.031000", "135134.034000", "135134.037000", "135134.040000", "135134.043000", "135134.046000", "135134.049000", "135134.052000", "135134.055000", "135134.058000", "135134.060000", "135134.063000", "135134.066000", "135134.069000", "135134.072000", "135134.075000", "135134.078000", "135134.081000", "135134.084000", "135134.087000", "135134.090000", "135214.014000", "135214.017000", "135214.020000", "135214.023000", "135214.035000", "135214.038000", "135214.041000", "135214.044000", "135214.047000", "135214.050000", "135214.053000", "135214.056000", "135214.059000", "135214.062000", "135214.065000", "135214.068000", "135214.071000", "135214.074000", "135214.077000", "135214.080000", "135214.083000", "135214.086000", "135214.088000", "135214.091000", "135214.094000", "135214.097000", "135214.100000", "135254.014000", "135254.017000", "135254.020000", "135254.023000", "135254.026000", "135254.029000", "135254.032000", "135254.035000", "135254.038000", "135254.041000", "135254.044000", "135254.047000", "135254.050000", "135254.053000", "135254.056000", "135254.058000", "135254.062000", "135254.064000", "135254.067000", "135254.070000", "135254.073000", "135254.076000", "135254.079000", "135254.082000", "135254.085000", "135254.088000", "135254.091000", "135334.013000", "135334.016000", "135334.019000", "135334.022000", "135334.025000", "135334.028000", "135334.031000", "135334.034000", "135334.037000", "135334.040000", "135334.043000", "135334.046000", "135334.049000", "135334.052000", "135334.054000", "135334.057000", "135334.060000", "135334.063000", "135334.066000", "135334.069000", "135334.072000", "135334.075000", "135334.078000", "135334.081000", "135334.084000", "135334.087000", "135334.090000", "135414.014000", "135414.017000", "135414.024000", "135414.027000", "135414.030000", "135414.033000", "135414.036000", "135414.039000", "135414.042000", "135414.045000", "135414.048000", "135414.050000", "135414.053000", "135414.056000", "135414.059000", "135414.062000", "135414.065000", "135414.068000", "135414.071000", "135414.074000", "135414.077000", "135414.080000", "135414.083000", "135414.086000", "135414.089000", "135414.092000", "135414.095000", "135454.014000", "135454.017000", "135454.020000", "135454.023000", "135454.026000", "135454.029000", "135454.032000", "135454.035000", "135454.038000", "135454.041000", "135454.044000", "135454.047000", "135454.050000", "135454.053000", "135454.057000", "135454.060000", "135454.063000", "135454.066000", "135454.069000", "135454.072000", "135454.075000", "135454.078000", "135454.080000", "135454.084000", "135454.086000", "135454.089000", "135534.014000", "135534.017000", "135534.020000", "135534.023000", "135534.026000", "135534.029000", "135534.032000", "135534.035000", "135534.038000", "135534.041000", "135534.044000", "135534.047000", "135534.050000", "135534.053000", "135534.056000", "135534.059000", "135534.062000", "135534.065000", "135534.067000", "135534.071000", "135534.073000", "135534.076000", "135534.079000", "135534.082000", "135534.085000", "135534.088000", "135534.091000", "135614.013000", "135614.016000", "135614.019000", "135614.022000", "135614.025000", "135614.028000", "135614.031000", "135614.034000", "135614.037000", "135614.040000", "135614.043000", "135614.046000", "135614.049000", "135614.052000", "135614.055000", "135614.058000", "135614.061000", "135614.064000", "135614.067000", "135614.070000", "135614.073000", "135614.075000", "135614.079000", "135614.082000", "135614.085000", "135614.088000", "135614.098000", "135654.014000", "135654.017000", "135654.020000", "135654.023000", "135654.026000", "135654.029000", "135654.032000", "135654.035000", "135654.038000", "135654.041000", "135654.044000", "135654.047000", "135654.050000", "135654.053000", "135654.056000", "135654.059000", "135654.062000", "135654.065000", "135654.068000", "135654.071000", "135654.074000", "135654.077000", "135654.080000", "135654.082000", "135654.085000", "135654.088000", "135654.091000", "135726.786000", "135726.789000", "135726.792000", "135726.795000", "135726.798000", "135726.801000", "135726.804000", "135726.807000", "135726.810000", "135726.813000", "135726.816000", "135726.819000", "135726.822000", "135726.825000", "135726.828000", "135726.831000", "135726.834000", "135726.836000", "135726.840000", "135726.843000", "135726.846000", "135726.849000"],
