{
  "AcquisitionMatrixPE": 104,
  "AcquisitionNumber": 1,
  "AcquisitionTime": "13:30:52.790000",
  "BandwidthPerPixelPhaseEncode": 17.17,
  "BaseResolution": 104,
  "BodyPartExamined": "BRAIN",
  "CoilString": "HC1-7;NC1_2",
  "ConsistencyInfo": "N4_VE11C_LATEST_20160120",
  "ConversionSoftware": "dcm2niix",
  "ConversionSoftwareVersion": "v1.0.20190902",
  "DerivedVendorReportedEchoSpacing": 0.000560011,
  "DeviceSerialNumber": "167006",
  "DwellTime": 2.1e-06,
  "EchoTime": 0.037,
  "EchoTrainLength": 104,
  "EffectiveEchoSpacing": 0.000560011,
  "FlipAngle": 52,
  "ImageComments": "Unaliased_MB4_PE3_LB",
  "ImageOrientationPatientDICOM": [0.999264, 0.00781314, -0.0375507, -0.0163955, 0.972089, -0.234041],
  "ImageType": [
    "ORIGINAL",
    "PRIMARY",
    "M",
    "MB",
    "ND",
    "MOSAIC"
],
  "ImagingFrequency": 123.259,
  "InPlanePhaseEncodingDirectionDICOM": "COL",
  "InstitutionAddress": "Chemin_Queen-Mary_4565_Montreal_District_CA_H3W_1W5",
  "InstitutionName": "IUGM",
  "InstitutionalDepartmentName": "Department",
  "MRAcquisitionType": "2D",
  "MagneticFieldStrength": 3,
  "Manufacturer": "Siemens",
  "ManufacturersModelName": "Prisma_fit",
  "Modality": "MR",
  "MultibandAccelerationFactor": 4,
  "PartialFourier": 1,
  "PatientPosition": "HFS",
  "PercentPhaseFOV": 100,
  "PhaseEncodingDirection": "j",
  "PhaseEncodingSteps": 104,
  "PhaseResolution": 1,
  "PixelBandwidth": 2290,
  "ProcedureStepDescription": "games_shinobi",
  "ProtocolName": "func_task-shinobi_run-2",
  "PulseSequenceDetails": "%CustomerSeq%_cmrr_mbep2d_bold",
  "ReceiveCoilActiveElements": "HC1-7;NC1,2",
  "ReceiveCoilName": "HeadNeck_64",
  "ReconMatrixPE": 104,
  "RepetitionTime": 1.49,
  "SAR": 0.0290211,
  "ScanOptions": "FS",
  "ScanningSequence": "EP",
  "SequenceName": "epfid2d1_104",
  "SequenceVariant": "SK_SS",
  "SeriesDescription": "func_task-shinobi_run-2",
  "SeriesNumber": 11,
  "ShimSetting": [600, -7238, -8833, 634, -71, -244, 8, 40],
  "SliceThickness": 2,
  "SliceTiming": [0, 0.785, 0.0975, 0.8825, 0.195, 0.98, 0.295, 1.0775, 0.3925, 1.175, 0.49, 1.275, 0.5875, 1.3725, 0.685, 0, 0.785, 0.0975, 0.8825, 0.195, 0.98, 0.295, 1.0775, 0.3925, 1.175, 0.49, 1.275, 0.5875, 1.3725, 0.685, 0, 0.785, 0.0975, 0.8825, 0.195, 0.98, 0.295, 1.0775, 0.3925, 1.175, 0.49, 1.275, 0.5875, 1.3725, 0.685, 0, 0.785, 0.0975, 0.8825, 0.195, 0.98, 0.295, 1.0775, 0.3925, 1.175, 0.49, 1.275, 0.5875, 1.3725, 0.685],
  "SoftwareVersions": "syngo_MR_E11",
  "SpacingBetweenSlices": 2,
  "StationName": "MRC35049",
  "TaskName": "shinobi",
  "TotalReadoutTime": 0.0576811,
  "TxRefAmp": 216.597,
  "WipMemBlock": "330ab618-098d-4cb5-8450-360995ca68a4||Sequence: R016 ve11c/master r/e634e98; Dec 19 2017 11:00:25 by eja",
  "dcmmeta_affine": [
    [-1.9985283613204956, -0.032791055738925934, -0.06934808194637299, 106.45492553710938],
    [-0.015626277774572372, 1.9441770315170288, -0.46896839141845703, -71.63530731201172],
    [-0.07510145753622055, 0.4680814743041992, 1.9430028200149536, -53.268497467041016],
    [0.0, 0.0, 0.0, 1.0]
],
  "dcmmeta_reorient_transform": [
    [0.0, -1.0, 0.0, 103.0],
    [1.0, 0.0, 0.0, 0.0],
    [0.0, 0.0, 1.0, 0.0],
    [0.0, 0.0, 0.0, 1.0]
],
  "dcmmeta_shape": [104, 104, 60, 516],
  "dcmmeta_slice_dim": 2,
  "dcmmeta_version": 0.6,
  "global": {
    "const": {
      "AcquisitionMatrix": [104, 0, 0, 104],
      "AngioFlag": "N",
      "BitsAllocated": 16,
      "BitsStored": 16,
      "BodyPartExamined": "BRAIN",
      "Columns": 832,
      "EchoNumbers": 1,
      "EchoTime": 37.0,
      "EchoTrainLength": 104,
      "FlipAngle": 52.0,
      "HighBit": 15,
      "ImageOrientationPatient": [0.99926417809707, 0.00781313871481, -0.0375507288266, -0.0163955269512, 0.97208853548965, -0.2340407354833],
      "ImagePositionPatient": [-818.60582602256, -841.98334735706, 192.66248163719],
      "ImageType": [
        "ORIGINAL",
        "PRIMARY",
        "M",
        "MB",
        "ND",
        "MOSAIC"
],
      "ImagedNucleus": "1H",
      "ImagingFrequency": 123.258995,
      "InPlanePhaseEncodingDirection": "COL",
      "MRAcquisitionType": "2D",
      "MagneticFieldStrength": 3.0,
      "Manufacturer": "SIEMENS",
      "ManufacturerModelName": "Prisma_fit",
      "Modality": "MR",
      "NumberOfAverages": 1.0,
      "NumberOfPhaseEncodingSteps": 104,
      "PercentPhaseFieldOfView": 100.0,
      "PercentSampling": 100.0,
      "PerformedProcedureStepStartTime": "121431.390000",
      "PhotometricInterpretation": "MONOCHROME2",
      "PixelBandwidth": 2290.0,
      "PixelRepresentation": 0,
      "PixelSpacing": [2.0, 2.0],
      "ProtocolName": "func_task-shinobi_run-2",
      "RepetitionTime": 1490.0,
      "Rows": 832,
      "SAR": 0.02902111452664,
      "SamplesPerPixel": 1,
      "ScanOptions": "FS",
      "ScanningSequence": "EP",
      "SequenceName": "epfid2d1_104",
      "SequenceVariant": [
        "SK",
        "SS"
],
      "SeriesDescription": "func_task-shinobi_run-2",
      "SeriesNumber": 11,
      "SeriesTime": "133214.661000",
      "SliceLocation": -38.644290798667,
      "SliceThickness": 2.0,
      "SmallestImagePixelValue": 0,
      "SoftwareVersions": "syngo MR E11",
      "SpacingBetweenSlices": 2.0000000904093,
      "SpecificCharacterSet": "ISO_IR 100",
      "StudyID": "1",
      "StudyTime": "121431.294000",
      "TransmitCoilName": "Body",
      "VariableFlipAngleFlag": "N",
      "WindowCenterWidthExplanation": "Algo1",
      "dBdt": 0.0},
    "slices": {}
  },
  "time": {
    "samples": {
      "AcquisitionNumber": [1, 2, 3, 4, 5, 6, 7, 8, 9, 10, 11, 12, 13, 14, 15, 16, 17, 18, 19, 20, 21, 22, 23, 24, 25, 26, 27, 28, 29, 30, 31, 32, 33, 34, 35, 36, 37, 38, 39, 40, 41, 42, 43, 44, 45, 46, 47, 48, 49, 50, 51, 52, 53, 54, 55, 56, 57, 58, 59, 60, 61, 62, 63, 64, 65, 66, 67, 68, 69, 70, 71, 72, 73, 74, 75, 76, 77, 78, 79, 80, 81, 82, 83, 84, 85, 86, 87, 88, 89, 90, 91, 92, 93, 94, 95, 96, 97, 98, 99, 100, 101, 102, 103, 104, 105, 106, 107, 108, 109, 110, 111, 112, 113, 114, 115, 116, 117, 118, 119, 120, 121, 122, 123, 124, 125, 126, 127, 128, 129, 130, 131, 132, 133, 134, 135, 136, 137, 138, 139, 140, 141, 142, 143, 144, 145, 146, 147, 148, 149, 150, 151, 152, 153, 154, 155, 156, 157, 158, 159, 160, 161, 162, 163, 164, 165, 166, 167, 168, 169, 170, 171, 172, 173, 174, 175, 176, 177, 178, 179, 180, 181, 182, 183, 184, 185, 186, 187, 188, 189, 190, 191, 192, 193, 194, 195, 196, 197, 198, 199, 200, 201, 202, 203, 204, 205, 206, 207, 208, 209, 210, 211, 212, 213, 214, 215, 216, 217, 218, 219, 220, 221, 222, 223, 224, 225, 226, 227, 228, 229, 230, 231, 232, 233, 234, 235, 236, 237, 238, 239, 240, 241, 242, 243, 244, 245, 246, 247, 248, 249, 250, 251, 252, 253, 254, 255, 256, 257, 258, 259, 260, 261, 262, 263, 264, 265, 266, 267, 268, 269, 270, 271, 272, 273, 274, 275, 276, 277, 278, 279, 280, 281, 282, 283, 284, 285, 286, 287, 288, 289, 290, 291, 292, 293, 294, 295, 296, 297, 298, 299, 300, 301, 302, 303, 304, 305, 306, 307, 308, 309, 310, 311, 312, 313, 314, 315, 316, 317, 318, 319, 320, 321, 322, 323, 324, 325, 326, 327, 328, 329, 330, 331, 332, 333, 334, 335, 336, 337, 338, 339, 340, 341, 342, 343, 344, 345, 346, 347, 348, 349, 350, 351, 352, 353, 354, 355, 356, 357, 358, 359, 360, 361, 362, 363, 364, 365, 366, 367, 368, 369, 370, 371, 372, 373, 374, 375, 376, 377, 378, 379, 380, 381, 382, 383, 384, 385, 386, 387, 388, 389, 390, 391, 392, 393, 394, 395, 396, 397, 398, 399, 400, 401, 402, 403, 404, 405, 406, 407, 408, 409, 410, 411, 412, 413, 414, 415, 416, 417, 418, 419, 420, 421, 422, 423, 424, 425, 426, 427, 428, 429, 430, 431, 432, 433, 434, 435, 436, 437, 438, 439, 440, 441, 442, 443, 444, 445, 446, 447, 448, 449, 450, 451, 452, 453, 454, 455, 456, 457, 458, 459, 460, 461, 462, 463, 464, 465, 466, 467, 468, 469, 470, 471, 472, 473, 474, 475, 476, 477, 478, 479, 480, 481, 482, 483, 484, 485, 486, 487, 488, 489, 490, 491, 492, 493, 494, 495, 496, 497, 498, 499, 500, 501, 502, 503, 504, 505, 506, 507, 508, 509, 510, 511, 512, 513, 514, 515, 516],
      "AcquisitionTime": ["133052.790000", "133054.280000", "133055.770000", "133057.260000", "133058.750000", "133100.240000", "133101.730000", "133103.220000", "133104.710000", "133106.200000", "133107.690000", "133109.180000", "133110.670000", "133112.160000", "133113.650000", "133115.140000", "133116.630000", "133118.120000", "133119.610000", "133121.100000", "133122.590000", "133124.080000", "133125.570000", "133127.060000", "133128.550000", "133130.040000", "133131.530000", "133133.020000", "133134.510000", "133136.000000", "133137.490000", "133138.980000", "133140.470000", "133141.960000", "133143.450000", "133144.940000", "133146.430000", "133147.920000", "133149.410000", "133150.900000", "133152.390000", "133153.880000", "133155.370000", "133156.860000", "133158.350000", "133159.840000", "133201.330000", "133202.820000", "133204.310000", "133205.800000", "133207.290000", "133208.780000", "133210.270000", "133211.760000", "133213.250000", "133214.740000", "133216.230000", "133217.720000", "133219.210000", "133220.700000", "133222.190000", "133223.680000", "133225.170000", "133226.660000", "133228.150000", "133229.640000", "133231.130000", "133232.620000", "133234.110000", "133235.600000", "133237.090000", "133238.580000", "133240.070000", "133241.560000", "133243.050000", "133244.540000", "133246.030000", "133247.520000", "133249.010000", "133250.500000", "133251.990000", "133253.480000", "133254.970000", "133256.460000", "133257.950000", "133259.440000", "133300.930000", "133302.420000", "133303.910000", "133305.400000", "133306.890000", "133308.380000", "133309.870000", "133311.360000", "133312.850000", "133314.340000", "133315.830000", "133317.320000", "133318.810000", "133320.300000", "133321.790000", "133323.280000", "133324.770000", "133326.260000", "133327.750000", "133329.240000", "133330.730000", "133332.220000", "133333.710000", "133335.200000", "133336.690000", "133338.180000", "133339.670000", "133341.160000", "133342.650000", "133344.140000", "133345.630000", "133347.120000", "133348.610000", "133350.100000", "133351.590000", "133353.080000", "133354.570000", "133356.060000", "133357.550000", "133359.040000", "133400.530000", "133402.020000", "133403.510000", "133405.000000", "133406.490000", "133407.980000", "133409.470000", "133410.960000", "133412.450000", "133413.940000", "133415.430000", "133416.920000", "133418.410000", "133419.900000", "133421.390000", "133422.880000", "133424.370000", "133425.860000", "133427.350000", "133428.840000", "133430.330000", "133431.820000", "133433.310000", "133434.800000", "133436.290000", "133437.780000", "133439.270000", "133440.760000", "133442.250000", "133443.740000", "133445.230000", "133446.720000", "133448.210000", "133449.700000", "133451.190000", "133452.680000", "133454.170000", "133455.660000", "133457.150000", "133458.640000", "133500.130000", "133501.620000", "133503.110000", "133504.600000", "133506.090000", "133507.580000", "133509.070000", "133510.560000", "133512.050000", "133513.540000", "133515.030000", "133516.520000", "133518.010000", "133519.500000", "133520.990000", "133522.480000", "133523.970000", "133525.460000", "133526.950000", "133528.440000", "133529.930000", "133531.420000", "133532.910000", "133534.400000", "133535.890000", "133537.380000", "133538.870000", "133540.360000", "133541.850000", "133543.340000", "133544.830000", "133546.320000", "133547.810000", "133549.300000", "133550.790000", "133552.280000", "133553.770000", "133555.260000", "133556.750000", "133558.240000", "133559.730000", "133601.220000", "133602.710000", "133604.200000", "133605.690000", "133607.180000", "133608.670000", "133610.160000", "133611.650000", "133613.140000", "133614.630000", "133616.120000", "133617.610000", "133619.100000", "133620.590000", "133622.080000", "133623.570000", "133625.060000", "133626.550000", "133628.040000", "133629.530000", "133631.020000", "133632.510000", "133634.000000", "133635.490000", "133636.980000", "133638.470000", "133639.960000", "133641.450000", "133642.940000", "133644.430000", "133645.920000", "133647.410000", "133648.900000", "133650.390000", "133651.880000", "133653.370000", "133654.860000", "133656.350000", "133657.840000", "133659.330000", "133700.820000", "133702.310000", "133703.800000", "133705.290000", "133706.780000", "133708.270000", "133709.760000", "133711.250000", "133712.740000", "133714.230000", "133715.720000", "133717.210000", "133718.700000", "133720.190000", "133721.680000", "133723.170000", "133724.660000", "133726.150000", "133727.640000", "133729.130000", "133730.620000", "133732.110000", "133733.600000", "133735.090000", "133736.580000", "133738.070000", "133739.560000", "133741.050000", "133742.540000", "133744.030000", "133745.520000", "133747.010000", "133748.500000", "133749.990000", "133751.480000", "133752.970000", "133754.460000", "133755.950000", "133757.440000", "133758.930000", "133800.420000", "133801.910000", "133803.400000", "133804.890000", "133806.380000", "133807.870000", "133809.360000", "133810.850000", "133812.340000", "133813.830000", "133815.320000", "133816.810000", "133818.300000", "133819.790000", "133821.280000", "133822.770000", "133824.260000", "133825.750000", "133827.240000", "133828.730000", "133830.220000", "133831.710000", "133833.200000", "133834.690000", "133836.180000", "133837.670000", "133839.160000", "133840.650000", "133842.140000", "133843.630000", "133845.120000", "133846.610000", "133848.100000", "133849.590000", "133851.080000", "133852.570000", "133854.060000", "133855.550000", "133857.040000", "133858.530000", "133900.020000", "133901.510000", "133903.000000", "133904.490000", "133905.980000", "133907.470000", "133908.960000", "133910.450000", "133911.940000", "133913.430000", "133914.920000", "133916.410000", "133917.900000", "133919.390000", "133920.880000", "133922.370000", "133923.860000", "133925.350000", "133926.840000", "133928.330000", "133929.820000", "133931.310000", "133932.800000", "133934.290000", "133935.780000", "133937.270000", "133938.760000", "133940.250000", "133941.740000", "133943.230000", "133944.720000", "133946.210000", "133947.700000", "133949.190000", "133950.680000", "133952.170000", "133953.660000", "133955.150000", "133956.640000", "133958.130000", "133959.620000", "134001.110000", "134002.600000", "134004.090000", "134005.580000", "134007.070000", "134008.560000", "134010.050000", "134011.540000", "134013.030000", "134014.520000", "134016.010000", "134017.500000", "134018.990000", "134020.480000", "134021.970000", "134023.460000", "134024.950000", "134026.440000", "134027.930000", "134029.420000", "134030.910000", "134032.400000", "134033.890000", "134035.380000", "134036.870000", "134038.360000", "134039.850000", "134041.340000", "134042.830000", "134044.320000", "134045.810000", "134047.300000", "134048.790000", "134050.280000", "134051.770000", "134053.260000", "134054.750000", "134056.240000", "134057.730000", "134059.220000", "134100.710000", "134102.200000", "134103.690000", "134105.180000", "134106.670000", "134108.160000", "134109.650000", "134111.140000", "134112.630000", "134114.120000", "134115.610000", "134117.100000", "134118.590000", "134120.080000", "134121.570000", "134123.060000", "134124.550000", "134126.040000", "134127.530000", "134129.020000", "134130.510000", "134132.000000", "134133.490000", "134134.980000", "134136.470000", "134137.960000", "134139.450000", "134140.940000", "134142.430000", "134143.920000", "134145.410000", "134146.900000", "134148.390000", "134149.880000", "134151.370000", "134152.860000", "134154.350000", "134155.840000", "134157.330000", "134158.820000", "134200.310000", "134201.800000", "134203.290000", "134204.780000", "134206.270000", "134207.760000", "134209.250000", "134210.740000", "134212.230000", "134213.720000", "134215.210000", "134216.700000", "134218.190000", "134219.680000", "134221.170000", "134222.660000", "134224.150000", "134225.640000", "134227.130000", "134228.620000", "134230.110000", "134231.600000", "134233.090000", "134234.580000", "134236.070000", "134237.560000", "134239.050000", "134240.540000", "134242.030000", "134243.520000", "134245.010000", "134246.500000", "134247.990000", "134249.480000", "134250.970000", "134252.460000", "134253.950000", "134255.440000", "134256.930000", "134258.420000", "134259.910000", "134301.400000", "134302.890000", "134304.380000", "134305.870000", "134307.360000", "134308.850000", "134310.340000", "134311.830000", "134313.320000", "134314.810000", "134316.300000", "134317.790000", "134319.280000", "134320.770000", "134322.260000", "134323.750000", "134325.240000", "134326.730000", "134328.220000", "134329.710000", "134331.200000", "134332.690000", "134334.180000", "134335.670000", "134337.160000", "134338.650000", "134340.140000"],
      "ContentTime": ["133214.664000", "133214.668000", "133214.671000", "133214.674000", "133214.677000", "133214.680000", "133214.683000", "133214.686000", "133214.689000", "133214.692000", "133214.695000", "133214.698000", "133214.706000", "133214.709000", "133214.712000", "133214.715000", "133214.718000", "133214.721000", "133214.724000", "133214.727000", "133214.730000", "133214.733000", "133214.736000", "133214.739000", "133214.742000", "133214.745000", "133214.753000", "133214.756000", "133214.764000", "133234.629000", "133234.632000", "133234.635000", "133234.638000", "133234.641000", "133234.644000", "133234.647000", "133234.650000", "133234.653000", "133234.656000", "133234.659000", "133234.662000", "133234.664000", "133234.667000", "133234.670000", "133234.673000", "133234.676000", "133234.679000", "133234.682000", "133234.685000", "133254.629000", "133254.632000", "133254.635000", "133254.638000", "133254.641000", "133254.644000", "133254.647000", "133254.650000", "133254.653000", "133254.655000", "133254.659000", "133254.661000", "133254.664000", "133254.667000", "133254.670000", "133254.673000", "133254.676000", "133254.679000", "133254.682000", "133254.685000", "133314.630000", "133314.633000", "133314.636000", "133314.639000", "133314.642000", "133314.645000", "133314.648000", "133314.651000", "133314.654000", "133314.658000", "133314.661000", "133314.665000", "133314.668000", "133314.671000", "133314.674000", "133314.677000", "133314.680000", "133314.683000", "133314.686000", "133314.689000", "133354.629000", "133354.645000", "133354.653000", "133354.656000", "133354.658000", "133354.661000", "133354.670000", "133354.673000", "133354.676000", "133354.679000", "133354.682000", "133354.685000", "133354.688000", "133354.691000", "133354.694000", "133354.697000", "133354.700000", "133354.703000", "133354.706000", "133354.709000", "133354.712000", "133354.714000", "133354.718000", "133354.720000", "133354.723000", "133354.726000", "133354.730000", "133354.733000", "133354.736000", "133354.739000", "133354.742000", "133354.745000", "133434.629000", "133434.632000", "133434.635000", "133434.638000", "133434.641000", "133434.644000", "133434.647000", "133434.650000", "133434.653000", "133434.656000", "133434.659000", "133434.661000", "133434.665000", "133434.667000", "133434.670000", "133434.673000", "133434.676000", "133434.679000", "133434.682000", "133434.685000", "133434.688000", "133434.691000", "133434.694000", "133434.697000", "133434.700000", "133434.703000", "133434.706000", "133514.629000", "133514.632000", "133514.635000", "133514.638000", "133514.641000", "133514.644000", "133514.647000", "133514.650000", "133514.653000", "133514.656000", "133514.659000", "133514.662000", "133514.665000", "133514.668000", "133514.671000", "133514.674000", "133514.677000", "133514.680000", "133514.682000", "133514.685000", "133514.688000", "133514.691000", "133514.694000", "133514.697000", "133514.700000", "133514.703000", "133514.706000", "133554.629000", "133554.632000", "133554.635000", "133554.638000", "133554.641000", "133554.644000", "133554.647000", "133554.650000", "133554.653000", "133554.656000", "133554.659000", "133554.662000", "133554.665000", "133554.668000", "133554.671000", "133554.674000", "133554.677000", "133554.680000", "133554.683000", "133554.686000", "133554.689000", "133554.692000", "133554.695000", "133554.698000", "133554.701000", "133554.704000", "133554.707000", "133634.629000", "133634.632000", "133634.635000", "133634.638000", "133634.641000", "133634.644000", "133634.647000", "133634.650000", "133634.653000", "133634.656000", "133634.659000", "133634.662000", "133634.665000", "133634.668000", "133634.671000", "133634.674000", "133634.677000", "133634.680000", "133634.682000", "133634.685000", "133634.688000", "133634.691000", "133634.694000", "133634.697000", "133634.700000", "133634.703000", "133634.706000", "133714.629000", "133714.632000", "133714.635000", "133714.638000", "133714.641000", "133714.644000", "133714.647000", "133714.650000", "133714.653000", "133714.656000", "133714.659000", "133714.662000", "133714.665000", "133714.668000", "133714.671000", "133714.674000", "133714.677000", "133714.680000", "133714.683000", "133714.686000", "133714.689000", "133714.692000", "133714.694000", "133714.697000", "133714.700000", "133714.703000", "133714.706000", "133754.630000", "133754.633000", "133754.636000", "133754.639000", "133754.642000", "133754.645000", "133754.648000", "133754.651000", "133754.654000", "133754.657000", "133754.660000", "133754.663000", "133754.666000", "133754.669000", "133754.672000", "133754.675000", "133754.678000", "133754.681000", "133754.704000", "133754.707000", "133754.710000", "133754.713000", "133754.716000", "133754.719000", "133754.722000", "133754.725000", "133834.629000", "133834.632000", "133834.635000", "133834.638000", "133834.641000", "133834.644000", "133834.647000", "133834.650000", "133834.653000", "133834.656000", "133834.659000", "133834.662000", "133834.665000", "133834.668000", "133834.671000", "133834.674000", "133834.677000", "133834.680000", "133834.683000", "133834.686000", "133834.688000", "133834.691000", "133834.694000", "133834.697000", "133834.700000", "133834.703000", "133834.706000", "133914.629000", "133914.632000", "133914.635000", "133914.638000", "133914.642000", "133914.645000", "133914.647000", "133914.650000", "133914.653000", "133914.656000", "133914.659000", "133914.662000", "133914.665000", "133914.668000", "133914.671000", "133914.674000", "133914.677000", "133914.680000", "133914.683000", "133914.686000", "133914.689000", "133914.692000", "133914.695000", "133914.697000", "133914.700000", "133914.703000", "133914.706000", "133954.629000", "133954.632000", "133954.635000", "133954.638000", "133954.641000", "133954.644000", "133954.647000", "133954.650000", "133954.653000", "133954.656000", "133954.659000", "133954.662000", "133954.665000", "133954.668000", "133954.671000", "133954.674000", "133954.677000", "133954.680000", "133954.683000", "133954.686000", "133954.689000", "133954.692000", "133954.694000", "133954.698000", "133954.700000", "133954.703000", "133954.706000", "134034.629000", "134034.632000", "134034.635000", "134034.638000", "134034.641000", "134034.644000", "134034.647000", "134034.650000", "134034.653000", "134034.656000", "134034.659000", "134034.662000", "134034.665000", "134034.668000", "134034.671000", "134034.674000", "134034.677000", "134034.680000", "134034.683000", "134034.686000", "134034.689000", "134034.691000", "134034.694000", "134034.697000", "134034.700000", "134034.703000", "134034.706000", "134114.629000", "134114.644000", "134114.647000", "134114.650000", "134114.653000", "134114.656000", "134114.659000", "134114.662000", "134114.665000", "134114.669000", "134114.672000", "134114.675000", "134114.677000", "134114.681000", "134114.684000", "134114.686000", "134114.689000", "134114.692000", "134114.695000", "134114.698000", "134114.701000", "134114.704000", "134114.707000", "134114.710000", "134114.713000", "134114.716000", "134114.719000", "134154.629000", "134154.633000", "134154.636000", "134154.639000", "134154.642000", "134154.645000", "134154.648000", "134154.651000", "134154.654000", "134154.657000", "134154.660000", "134154.663000", "134154.666000", "134154.669000", "134154.672000", "134154.675000", "134154.678000", "134154.681000", "134154.684000", "134154.687000", "134154.690000", "134154.693000", "134154.696000", "134154.699000", "134154.702000", "134154.705000", "134234.630000", "134234.633000", "134234.636000", "134234.639000", "134234.642000", "134234.645000", "134234.648000", "134234.651000", "134234.654000", "134234.657000", "134234.660000", "134234.663000", "134234.666000", "134234.669000", "134234.686000", "134234.689000", "134234.692000", "134234.694000", "134234.698000", "134234.700000", "134234.703000", "134234.706000", "134234.709000", "134234.712000", "134234.715000", "134234.718000", "134234.721000", "134314.629000", "134314.632000", "134314.635000", "134314.638000", "134314.641000", "134314.644000", "134314.647000", "134314.650000", "134314.653000", "134314.656000", "134314.659000", "134314.662000", "134314.665000", "134314.668000", "134314.671000", "134314.674000", "134314.677000", "134314.680000", "134314.683000", "134314.686000", "134314.689000", "134314.692000", "134314.695000", "134314.698000", "134314.700000", "134314.704000", "134314.707000", "134343.017000", "134343.022000", "134343.025000", "134343.028000", "134343.031000", "134343.034000", "134343.037000", "134343.040000", "134343.047000", "134343.050000", "134343.053000", "134343.056000", "134343.059000", "134343.062000", "134343.065000", "134343.068000", "134343.071000", "134343.074000", "134343.077000"],
