{
  "AcquisitionMatrixPE": 104,
  "AcquisitionNumber": 1,
  "AcquisitionTime": "11:12:1.600000",
  "BandwidthPerPixelPhaseEncode": 17.17,
  "BaseResolution": 104,
  "BodyPartExamined": "BRAIN",
  "CoilString": "HC1-7;NC1_2",
  "ConsistencyInfo": "N4_VE11C_LATEST_20160120",
  "ConversionSoftware": "dcm2niix",
  "ConversionSoftwareVersion": "v1.0.20190902",
  "DerivedVendorReportedEchoSpacing": 0.000560011,
  "DeviceSerialNumber": "167006",
  "DwellTime": 2.1e-06,
  "EchoTime": 0.037,
  "EchoTrainLength": 104,
  "EffectiveEchoSpacing": 0.000560011,
  "FlipAngle": 52,
  "ImageComments": "Unaliased_MB4_PE3_LB",
  "ImageOrientationPatientDICOM": [0.999741, 0.0108151, 0.0200086, 0.000872393, 0.860833, -0.508887],
  "ImageType": [
    "ORIGINAL",
    "PRIMARY",
    "M",
    "MB",
    "ND",
    "MOSAIC"
],
  "ImagingFrequency": 123.259,
  "InPlanePhaseEncodingDirectionDICOM": "COL",
  "InstitutionAddress": "Chemin_Queen-Mary_4565_Montreal_District_CA_H3W_1W5",
  "InstitutionName": "IUGM",
  "InstitutionalDepartmentName": "Department",
  "MRAcquisitionType": "2D",
  "MagneticFieldStrength": 3,
  "Manufacturer": "Siemens",
  "ManufacturersModelName": "Prisma_fit",
  "Modality": "MR",
  "MultibandAccelerationFactor": 4,
  "PartialFourier": 1,
  "PatientPosition": "HFS",
  "PercentPhaseFOV": 100,
  "PhaseEncodingDirection": "j",
  "PhaseEncodingSteps": 104,
  "PhaseResolution": 1,
  "PixelBandwidth": 2290,
  "ProcedureStepDescription": "games_shinobi",
  "ProtocolName": "func_task-shinobi_run-3",
  "PulseSequenceDetails": "%CustomerSeq%_cmrr_mbep2d_bold",
  "ReceiveCoilActiveElements": "HC1-7;NC1,2",
  "ReceiveCoilName": "HeadNeck_64",
  "ReconMatrixPE": 104,
  "RepetitionTime": 1.49,
  "SAR": 0.035621,
  "ScanOptions": "FS",
  "ScanningSequence": "EP",
  "SequenceName": "epfid2d1_104",
  "SequenceVariant": "SK_SS",
  "SeriesDescription": "func_task-shinobi_run-3",
  "SeriesNumber": 13,
  "ShimSetting": [619, -7200, -8873, 349, -11, -170, -11, -22],
  "SliceThickness": 2,
  "SliceTiming": [0, 0.7825, 0.0975, 0.8825, 0.195, 0.98, 0.2925, 1.0775, 0.3925, 1.175, 0.49, 1.2725, 0.5875, 1.3725, 0.685, 0, 0.7825, 0.0975, 0.8825, 0.195, 0.98, 0.2925, 1.0775, 0.3925, 1.175, 0.49, 1.2725, 0.5875, 1.3725, 0.685, 0, 0.7825, 0.0975, 0.8825, 0.195, 0.98, 0.2925, 1.0775, 0.3925, 1.175, 0.49, 1.2725, 0.5875, 1.3725, 0.685, 0, 0.7825, 0.0975, 0.8825, 0.195, 0.98, 0.2925, 1.0775, 0.3925, 1.175, 0.49, 1.2725, 0.5875, 1.3725, 0.685],
  "SoftwareVersions": "syngo_MR_E11",
  "SpacingBetweenSlices": 2,
  "StationName": "MRC35049",
  "TaskName": "shinobi",
  "TotalReadoutTime": 0.0576811,
  "TxRefAmp": 248.293,
  "WipMemBlock": "fafc2c3c-63a8-450e-8a07-b205a228890b||Sequence: R016 ve11c/master r/e634e98; Dec 19 2017 11:00:25 by eja",
  "dcmmeta_affine": [
    [-1.9994826316833496, 0.001744785811752081, 0.045455437153577805, 106.35153198242188],
    [-0.02163013257086277, 1.721665382385254, -1.01754629611969, -49.58555603027344],
    [0.040017228573560715, 1.0177747011184692, 1.7212011814117432, -91.88162231445312],
    [0.0, 0.0, 0.0, 1.0]
],
  "dcmmeta_reorient_transform": [
    [0.0, -1.0, 0.0, 103.0],
    [1.0, 0.0, 0.0, 0.0],
    [0.0, 0.0, 1.0, 0.0],
    [0.0, 0.0, 0.0, 1.0]
],
  "dcmmeta_shape": [104, 104, 60, 522],
  "dcmmeta_slice_dim": 2,
  "dcmmeta_version": 0.6,
  "global": {
    "const": {
      "AcquisitionMatrix": [104, 0, 0, 104],
      "AngioFlag": "N",
      "BitsAllocated": 16,
      "BitsStored": 16,
      "BodyPartExamined": "BRAIN",
      "Columns": 832,
      "EchoNumbers": 1,
      "EchoTime": 37.0,
      "EchoTrainLength": 104,
      "FlipAngle": 52.0,
      "HighBit": 15,
      "ImageOrientationPatient": [0.99974131139618, 0.01081506637894, 0.02000861382159, 0.000872392892, 0.86083269556006, -0.5088873246461],
      "ImagePositionPatient": [-834.97802016158, -762.30555005483, 368.85286896115],
      "ImageType": [
        "ORIGINAL",
        "PRIMARY",
        "M",
        "MB",
        "ND",
        "MOSAIC"
],
      "ImagedNucleus": "1H",
      "ImagingFrequency": 123.25942,
      "InPlanePhaseEncodingDirection": "COL",
      "MRAcquisitionType": "2D",
      "MagneticFieldStrength": 3.0,
      "Manufacturer": "SIEMENS",
      "ManufacturerModelName": "Prisma_fit",
      "Modality": "MR",
      "NumberOfAverages": 1.0,
      "NumberOfPhaseEncodingSteps": 104,
      "PercentPhaseFieldOfView": 100.0,
      "PercentSampling": 100.0,
      "PerformedProcedureStepStartTime": "103755.530000",
      "PhotometricInterpretation": "MONOCHROME2",
      "PixelBandwidth": 2290.0,
      "PixelRepresentation": 0,
      "PixelSpacing": [2.0, 2.0],
      "ProtocolName": "func_task-shinobi_run-3",
      "RepetitionTime": 1490.0,
      "Rows": 832,
      "SAR": 0.03562100348761,
      "SamplesPerPixel": 1,
      "ScanOptions": "FS",
      "ScanningSequence": "EP",
      "SequenceName": "epfid2d1_104",
      "SequenceVariant": [
        "SK",
        "SS"
],
      "SeriesDescription": "func_task-shinobi_run-3",
      "SeriesNumber": 13,
      "SeriesTime": "111332.068000",
      "SliceLocation": -51.428449480443,
      "SliceThickness": 2.0,
      "SmallestImagePixelValue": 0,
      "SoftwareVersions": "syngo MR E11",
      "SpacingBetweenSlices": 2.0000000239778,
      "SpecificCharacterSet": "ISO_IR 100",
      "StudyID": "1",
      "StudyTime": "103755.451000",
      "TransmitCoilName": "Body",
      "VariableFlipAngleFlag": "N",
      "WindowCenterWidthExplanation": "Algo1",
      "dBdt": 0.0},
    "slices": {}
  },
  "time": {
    "samples": {
      "AcquisitionNumber": [1, 2, 3, 4, 5, 6, 7, 8, 9, 10, 11, 12, 13, 14, 15, 16, 17, 18, 19, 20, 21, 22, 23, 24, 25, 26, 27, 28, 29, 30, 31, 32, 33, 34, 35, 36, 37, 38, 39, 40, 41, 42, 43, 44, 45, 46, 47, 48, 49, 50, 51, 52, 53, 54, 55, 56, 57, 58, 59, 60, 61, 62, 63, 64, 65, 66, 67, 68, 69, 70, 71, 72, 73, 74, 75, 76, 77, 78, 79, 80, 81, 82, 83, 84, 85, 86, 87, 88, 89, 90, 91, 92, 93, 94, 95, 96, 97, 98, 99, 100, 101, 102, 103, 104, 105, 106, 107, 108, 109, 110, 111, 112, 113, 114, 115, 116, 117, 118, 119, 120, 121, 122, 123, 124, 125, 126, 127, 128, 129, 130, 131, 132, 133, 134, 135, 136, 137, 138, 139, 140, 141, 142, 143, 144, 145, 146, 147, 148, 149, 150, 151, 152, 153, 154, 155, 156, 157, 158, 159, 160, 161, 162, 163, 164, 165, 166, 167, 168, 169, 170, 171, 172, 173, 174, 175, 176, 177, 178, 179, 180, 181, 182, 183, 184, 185, 186, 187, 188, 189, 190, 191, 192, 193, 194, 195, 196, 197, 198, 199, 200, 201, 202, 203, 204, 205, 206, 207, 208, 209, 210, 211, 212, 213, 214, 215, 216, 217, 218, 219, 220, 221, 222, 223, 224, 225, 226, 227, 228, 229, 230, 231, 232, 233, 234, 235, 236, 237, 238, 239, 240, 241, 242, 243, 244, 245, 246, 247, 248, 249, 250, 251, 252, 253, 254, 255, 256, 257, 258, 259, 260, 261, 262, 263, 264, 265, 266, 267, 268, 269, 270, 271, 272, 273, 274, 275, 276, 277, 278, 279, 280, 281, 282, 283, 284, 285, 286, 287, 288, 289, 290, 291, 292, 293, 294, 295, 296, 297, 298, 299, 300, 301, 302, 303, 304, 305, 306, 307, 308, 309, 310, 311, 312, 313, 314, 315, 316, 317, 318, 319, 320, 321, 322, 323, 324, 325, 326, 327, 328, 329, 330, 331, 332, 333, 334, 335, 336, 337, 338, 339, 340, 341, 342, 343, 344, 345, 346, 347, 348, 349, 350, 351, 352, 353, 354, 355, 356, 357, 358, 359, 360, 361, 362, 363, 364, 365, 366, 367, 368, 369, 370, 371, 372, 373, 374, 375, 376, 377, 378, 379, 380, 381, 382, 383, 384, 385, 386, 387, 388, 389, 390, 391, 392, 393, 394, 395, 396, 397, 398, 399, 400, 401, 402, 403, 404, 405, 406, 407, 408, 409, 410, 411, 412, 413, 414, 415, 416, 417, 418, 419, 420, 421, 422, 423, 424, 425, 426, 427, 428, 429, 430, 431, 432, 433, 434, 435, 436, 437, 438, 439, 440, 441, 442, 443, 444, 445, 446, 447, 448, 449, 450, 451, 452, 453, 454, 455, 456, 457, 458, 459, 460, 461, 462, 463, 464, 465, 466, 467, 468, 469, 470, 471, 472, 473, 474, 475, 476, 477, 478, 479, 480, 481, 482, 483, 484, 485, 486, 487, 488, 489, 490, 491, 492, 493, 494, 495, 496, 497, 498, 499, 500, 501, 502, 503, 504, 505, 506, 507, 508, 509, 510, 511, 512, 513, 514, 515, 516, 517, 518, 519, 520, 521, 522],
      "AcquisitionTime": ["111201.600000", "111203.090000", "111204.580000", "111206.070000", "111207.560000", "111209.050000", "111210.540000", "111212.030000", "111213.520000", "111215.010000", "111216.500000", "111217.990000", "111219.480000", "111220.970000", "111222.460000", "111223.950000", "111225.440000", "111226.930000", "111228.420000", "111229.910000", "111231.400000", "111232.890000", "111234.380000", "111235.870000", "111237.360000", "111238.850000", "111240.340000", "111241.830000", "111243.320000", "111244.810000", "111246.300000", "111247.790000", "111249.280000", "111250.770000", "111252.260000", "111253.750000", "111255.240000", "111256.730000", "111258.220000", "111259.710000", "111301.200000", "111302.690000", "111304.180000", "111305.670000", "111307.160000", "111308.650000", "111310.140000", "111311.630000", "111313.120000", "111314.610000", "111316.100000", "111317.590000", "111319.080000", "111320.570000", "111322.060000", "111323.550000", "111325.040000", "111326.530000", "111328.020000", "111329.510000", "111331.000000", "111332.490000", "111333.980000", "111335.470000", "111336.960000", "111338.450000", "111339.940000", "111341.430000", "111342.920000", "111344.410000", "111345.900000", "111347.390000", "111348.880000", "111350.370000", "111351.860000", "111353.350000", "111354.840000", "111356.330000", "111357.820000", "111359.310000", "111400.800000", "111402.290000", "111403.780000", "111405.270000", "111406.760000", "111408.250000", "111409.740000", "111411.230000", "111412.720000", "111414.210000", "111415.700000", "111417.190000", "111418.680000", "111420.170000", "111421.660000", "111423.150000", "111424.640000", "111426.130000", "111427.620000", "111429.110000", "111430.600000", "111432.090000", "111433.580000", "111435.070000", "111436.560000", "111438.050000", "111439.540000", "111441.030000", "111442.520000", "111444.010000", "111445.500000", "111446.990000", "111448.480000", "111449.970000", "111451.460000", "111452.950000", "111454.440000", "111455.930000", "111457.420000", "111458.910000", "111500.400000", "111501.890000", "111503.380000", "111504.870000", "111506.360000", "111507.850000", "111509.340000", "111510.830000", "111512.320000", "111513.810000", "111515.300000", "111516.790000", "111518.280000", "111519.770000", "111521.260000", "111522.750000", "111524.240000", "111525.730000", "111527.220000", "111528.710000", "111530.200000", "111531.690000", "111533.180000", "111534.670000", "111536.160000", "111537.650000", "111539.140000", "111540.630000", "111542.120000", "111543.610000", "111545.100000", "111546.590000", "111548.080000", "111549.570000", "111551.060000", "111552.550000", "111554.040000", "111555.530000", "111557.020000", "111558.510000", "111600.000000", "111601.490000", "111602.980000", "111604.470000", "111605.960000", "111607.450000", "111608.940000", "111610.430000", "111611.920000", "111613.410000", "111614.900000", "111616.390000", "111617.880000", "111619.370000", "111620.860000", "111622.350000", "111623.840000", "111625.330000", "111626.820000", "111628.310000", "111629.800000", "111631.290000", "111632.780000", "111634.270000", "111635.760000", "111637.250000", "111638.740000", "111640.230000", "111641.720000", "111643.210000", "111644.700000", "111646.190000", "111647.680000", "111649.170000", "111650.660000", "111652.150000", "111653.640000", "111655.130000", "111656.620000", "111658.110000", "111659.600000", "111701.090000", "111702.580000", "111704.070000", "111705.560000", "111707.050000", "111708.540000", "111710.030000", "111711.520000", "111713.010000", "111714.500000", "111715.990000", "111717.480000", "111718.970000", "111720.460000", "111721.950000", "111723.440000", "111724.930000", "111726.420000", "111727.910000", "111729.400000", "111730.890000", "111732.380000", "111733.870000", "111735.360000", "111736.850000", "111738.340000", "111739.830000", "111741.320000", "111742.810000", "111744.300000", "111745.790000", "111747.280000", "111748.770000", "111750.260000", "111751.750000", "111753.240000", "111754.730000", "111756.220000", "111757.710000", "111759.200000", "111800.690000", "111802.180000", "111803.670000", "111805.160000", "111806.650000", "111808.140000", "111809.630000", "111811.120000", "111812.610000", "111814.100000", "111815.590000", "111817.080000", "111818.570000", "111820.060000", "111821.550000", "111823.040000", "111824.530000", "111826.020000", "111827.510000", "111829.000000", "111830.490000", "111831.980000", "111833.470000", "111834.960000", "111836.450000", "111837.940000", "111839.430000", "111840.920000", "111842.410000", "111843.900000", "111845.390000", "111846.880000", "111848.370000", "111849.860000", "111851.350000", "111852.840000", "111854.330000", "111855.820000", "111857.310000", "111858.800000", "111900.290000", "111901.780000", "111903.270000", "111904.760000", "111906.250000", "111907.740000", "111909.230000", "111910.720000", "111912.210000", "111913.700000", "111915.190000", "111916.680000", "111918.170000", "111919.660000", "111921.150000", "111922.640000", "111924.130000", "111925.620000", "111927.110000", "111928.600000", "111930.090000", "111931.580000", "111933.070000", "111934.560000", "111936.050000", "111937.540000", "111939.030000", "111940.520000", "111942.010000", "111943.500000", "111944.990000", "111946.480000", "111947.970000", "111949.460000", "111950.950000", "111952.440000", "111953.930000", "111955.420000", "111956.910000", "111958.400000", "111959.890000", "112001.380000", "112002.870000", "112004.360000", "112005.850000", "112007.340000", "112008.830000", "112010.320000", "112011.810000", "112013.300000", "112014.790000", "112016.280000", "112017.770000", "112019.260000", "112020.750000", "112022.240000", "112023.730000", "112025.220000", "112026.710000", "112028.200000", "112029.690000", "112031.180000", "112032.670000", "112034.160000", "112035.650000", "112037.140000", "112038.630000", "112040.120000", "112041.610000", "112043.100000", "112044.590000", "112046.080000", "112047.570000", "112049.060000", "112050.550000", "112052.040000", "112053.530000", "112055.020000", "112056.510000", "112058.000000", "112059.490000", "112100.980000", "112102.470000", "112103.960000", "112105.450000", "112106.940000", "112108.430000", "112109.920000", "112111.410000", "112112.900000", "112114.390000", "112115.880000", "112117.370000", "112118.860000", "112120.350000", "112121.840000", "112123.330000", "112124.820000", "112126.310000", "112127.800000", "112129.290000", "112130.780000", "112132.270000", "112133.760000", "112135.250000", "112136.740000", "112138.230000", "112139.720000", "112141.210000", "112142.700000", "112144.190000", "112145.680000", "112147.170000", "112148.660000", "112150.150000", "112151.640000", "112153.130000", "112154.620000", "112156.110000", "112157.600000", "112159.090000", "112200.580000", "112202.070000", "112203.560000", "112205.050000", "112206.540000", "112208.030000", "112209.520000", "112211.010000", "112212.500000", "112213.990000", "112215.480000", "112216.970000", "112218.460000", "112219.950000", "112221.440000", "112222.930000", "112224.420000", "112225.910000", "112227.400000", "112228.890000", "112230.380000", "112231.870000", "112233.360000", "112234.850000", "112236.340000", "112237.830000", "112239.320000", "112240.810000", "112242.300000", "112243.790000", "112245.280000", "112246.770000", "112248.260000", "112249.750000", "112251.240000", "112252.730000", "112254.220000", "112255.710000", "112257.200000", "112258.690000", "112300.180000", "112301.670000", "112303.160000", "112304.650000", "112306.140000", "112307.630000", "112309.120000", "112310.610000", "112312.100000", "112313.590000", "112315.080000", "112316.570000", "112318.060000", "112319.550000", "112321.040000", "112322.530000", "112324.020000", "112325.510000", "112327.000000", "112328.490000", "112329.980000", "112331.470000", "112332.960000", "112334.450000", "112335.940000", "112337.430000", "112338.920000", "112340.410000", "112341.900000", "112343.390000", "112344.880000", "112346.370000", "112347.860000", "112349.350000", "112350.840000", "112352.330000", "112353.820000", "112355.310000", "112356.800000", "112358.290000", "112359.780000", "112401.270000", "112402.760000", "112404.250000", "112405.740000", "112407.230000", "112408.720000", "112410.210000", "112411.700000", "112413.190000", "112414.680000", "112416.170000", "112417.660000", "112419.150000", "112420.640000", "112422.130000", "112423.620000", "112425.110000", "112426.600000", "112428.090000", "112429.580000", "112431.070000", "112432.560000", "112434.050000", "112435.540000", "112437.030000", "112438.520000", "112440.010000", "112441.500000", "112442.990000", "112444.480000", "112445.970000", "112447.460000", "112448.950000", "112450.440000", "112451.930000", "112453.420000", "112454.910000", "112456.400000", "112457.890000"],
      "ContentTime": ["111332.071000", "111332.074000", "111332.077000", "111332.080000", "111332.091000", "111332.094000", "111332.096000", "111332.099000", "111332.102000", "111332.105000", "111332.108000", "111332.110000", "111332.113000", "111332.116000", "111332.119000", "111332.122000", "111332.125000", "111332.127000", "111332.130000", "111332.133000", "111332.136000", "111332.139000", "111332.142000", "111332.144000", "111332.147000", "111332.150000", "111332.153000", "111332.156000", "111332.159000", "111332.161000", "111332.164000", "111332.167000", "111332.170000", "111332.173000", "111332.175000", "111352.044000", "111352.047000", "111352.050000", "111352.053000", "111352.056000", "111352.059000", "111352.061000", "111352.064000", "111352.067000", "111352.070000", "111352.072000", "111352.075000", "111352.078000", "111352.081000", "111352.084000", "111352.086000", "111352.089000", "111352.092000", "111352.103000", "111352.106000", "111412.044000", "111412.047000", "111412.050000", "111412.053000", "111412.056000", "111412.059000", "111412.063000", "111412.066000", "111412.069000", "111412.080000", "111412.083000", "111412.086000", "111412.089000", "111412.092000", "111412.095000", "111412.097000", "111412.100000", "111412.103000", "111412.106000", "111412.109000", "111432.043000", "111432.046000", "111432.049000", "111432.052000", "111432.054000", "111432.057000", "111432.060000", "111432.063000", "111432.066000", "111432.068000", "111432.071000", "111432.074000", "111432.077000", "111432.080000", "111432.083000", "111432.085000", "111432.088000", "111432.091000", "111432.094000", "111432.097000", "111432.099000", "111512.044000", "111512.047000", "111512.050000", "111512.053000", "111512.055000", "111512.058000", "111512.061000", "111512.064000", "111512.067000", "111512.069000", "111512.072000", "111512.075000", "111512.078000", "111512.081000", "111512.084000", "111512.086000", "111512.089000", "111512.092000", "111512.095000", "111512.098000", "111512.101000", "111512.103000", "111512.106000", "111512.109000", "111512.112000", "111512.115000", "111512.118000", "111512.121000", "111512.123000", "111512.126000", "111512.129000", "111552.044000", "111552.047000", "111552.050000", "111552.053000", "111552.055000", "111552.058000", "111552.061000", "111552.064000", "111552.067000", "111552.069000", "111552.072000", "111552.075000", "111552.078000", "111552.081000", "111552.083000", "111552.086000", "111552.089000", "111552.092000", "111552.095000", "111552.098000", "111552.100000", "111552.103000", "111552.106000", "111552.109000", "111552.112000", "111552.114000", "111552.117000", "111632.044000", "111632.047000", "111632.050000", "111632.053000", "111632.056000", "111632.058000", "111632.061000", "111632.064000", "111632.067000", "111632.070000", "111632.073000", "111632.075000", "111632.078000", "111632.081000", "111632.084000", "111632.087000", "111632.090000", "111632.093000", "111632.096000", "111632.099000", "111632.101000", "111632.104000", "111632.107000", "111632.110000", "111632.113000", "111632.115000", "111712.043000", "111712.046000", "111712.049000", "111712.052000", "111712.055000", "111712.058000", "111712.061000", "111712.063000", "111712.066000", "111712.069000", "111712.072000", "111712.075000", "111712.078000", "111712.080000", "111712.084000", "111712.087000", "111712.090000", "111712.092000", "111712.095000", "111712.098000", "111712.101000", "111712.104000", "111712.106000", "111712.109000", "111712.112000", "111712.115000", "111712.118000", "111752.044000", "111752.047000", "111752.050000", "111752.053000", "111752.056000", "111752.058000", "111752.061000", "111752.064000", "111752.067000", "111752.070000", "111752.073000", "111752.076000", "111752.079000", "111752.082000", "111752.085000", "111752.087000", "111752.090000", "111752.093000", "111752.096000", "111752.099000", "111752.101000", "111752.104000", "111752.107000", "111752.110000", "111752.113000", "111752.115000", "111752.118000", "111832.044000", "111832.047000", "111832.050000", "111832.053000", "111832.056000", "111832.058000", "111832.061000", "111832.064000", "111832.067000", "111832.070000", "111832.072000", "111832.075000", "111832.078000", "111832.086000", "111832.089000", "111832.092000", "111832.095000", "111832.098000", "111832.101000", "111832.103000", "111832.106000", "111832.109000", "111832.112000", "111832.115000", "111832.117000", "111832.120000", "111832.135000", "111912.043000", "111912.046000", "111912.049000", "111912.052000", "111912.055000", "111912.057000", "111912.060000", "111912.063000", "111912.066000", "111912.069000", "111912.072000", "111912.074000", "111912.077000", "111912.080000", "111912.083000", "111912.086000", "111912.089000", "111912.091000", "111912.094000", "111912.097000", "111912.100000", "111912.103000", "111912.106000", "111912.109000", "111912.111000", "111912.114000", "111912.117000", "111952.044000", "111952.047000", "111952.050000", "111952.053000", "111952.056000", "111952.058000", "111952.061000", "111952.064000", "111952.067000", "111952.070000", "111952.072000", "111952.075000", "111952.078000", "111952.081000", "111952.084000", "111952.087000", "111952.090000", "111952.092000", "111952.095000", "111952.098000", "111952.101000", "111952.104000", "111952.106000", "111952.109000", "111952.112000", "111952.115000", "111952.118000", "112032.044000", "112032.047000", "112032.050000", "112032.053000", "112032.056000", "112032.058000", "112032.061000", "112032.064000", "112032.067000", "112032.070000", "112032.073000", "112032.075000", "112032.078000", "112032.081000", "112032.084000", "112032.087000", "112032.090000", "112032.093000", "112032.095000", "112032.098000", "112032.101000", "112032.104000", "112032.107000", "112032.110000", "112032.112000", "112032.115000", "112032.118000", "112112.044000", "112112.047000", "112112.050000", "112112.053000", "112112.056000", "112112.059000", "112112.061000", "112112.064000", "112112.067000", "112112.070000", "112112.073000", "112112.075000", "112112.080000", "112112.083000", "112112.086000", "112112.088000", "112112.091000", "112112.094000", "112112.097000", "112112.100000", "112112.103000", "112112.105000", "112112.108000", "112112.111000", "112112.114000", "112112.117000", "112152.043000", "112152.046000", "112152.049000", "112152.052000", "112152.055000", "112152.057000", "112152.060000", "112152.063000", "112152.066000", "112152.069000", "112152.071000", "112152.074000", "112152.077000", "112152.080000", "112152.083000", "112152.086000", "112152.089000", "112152.091000", "112152.094000", "112152.097000", "112152.100000", "112152.103000", "112152.106000", "112152.109000", "112152.111000", "112152.114000", "112152.117000", "112232.044000", "112232.047000", "112232.050000", "112232.053000", "112232.056000", "112232.059000", "112232.061000", "112232.064000", "112232.067000", "112232.070000", "112232.073000", "112232.076000", "112232.079000", "112232.084000", "112232.087000", "112232.090000", "112232.092000", "112232.095000", "112232.098000", "112232.101000", "112232.104000", "112232.107000", "112232.110000", "112232.113000", "112232.115000", "112232.118000", "112232.121000", "112312.044000", "112312.047000", "112312.050000", "112312.053000", "112312.056000", "112312.058000", "112312.061000", "112312.064000", "112312.067000", "112312.070000", "112312.073000", "112312.076000", "112312.079000", "112312.082000", "112312.085000", "112312.088000", "112312.091000", "112312.093000", "112312.096000", "112312.099000", "112312.102000", "112312.105000", "112312.108000", "112312.110000", "112312.113000", "112312.116000", "112312.119000", "112352.043000", "112352.046000", "112352.049000", "112352.052000", "112352.055000", "112352.057000", "112352.060000", "112352.063000", "112352.066000", "112352.069000", "112352.072000", "112352.074000", "112352.077000", "112352.080000", "112352.083000", "112352.086000", "112352.089000", "112352.092000", "112352.095000", "112352.098000", "112352.101000", "112352.103000", "112352.106000", "112352.109000", "112352.112000", "112352.115000", "112352.118000", "112432.044000", "112432.047000", "112432.050000", "112432.053000", "112432.056000", "112432.059000", "112432.061000", "112432.064000", "112432.067000", "112432.070000", "112432.073000", "112432.076000", "112432.079000", "112432.081000", "112432.084000", "112432.087000", "112432.090000", "112432.093000", "112432.096000", "112432.098000", "112432.101000", "112432.104000", "112432.107000", "112432.110000", "112432.113000", "112432.116000", "112432.119000", "112500.505000", "112500.509000", "112500.512000", "112500.514000", "112500.517000", "112500.520000", "112500.523000", "112500.526000", "112500.529000", "112500.532000", "112500.535000", "112500.538000", "112500.540000", "112500.543000", "112500.546000", "112500.549000", "112500.552000", "112500.555000", "112500.558000"],
