{
  "AcquisitionMatrixPE": 104,
  "AcquisitionNumber": 1,
  "AcquisitionTime": "10:46:44.082500",
  "BandwidthPerPixelPhaseEncode": 17.17,
  "BaseResolution": 104,
  "BodyPartExamined": "BRAIN",
  "CoilString": "HC1-7;NC1_2",
  "ConsistencyInfo": "N4_VE11C_LATEST_20160120",
  "ConversionSoftware": "dcm2niix",
  "ConversionSoftwareVersion": "v1.0.20190902",
  "DerivedVendorReportedEchoSpacing": 0.000560011,
  "DeviceSerialNumber": "167006",
  "DwellTime": 2.1e-06,
  "EchoTime": 0.037,
  "EchoTrainLength": 104,
  "EffectiveEchoSpacing": 0.000560011,
  "FlipAngle": 52,
  "ImageComments": "Unaliased_MB4_PE3_LB",
  "ImageOrientationPatientDICOM": [0.999741, 0.0108151, 0.0200086, 0.000872393, 0.860833, -0.508887],
  "ImageType": [
    "ORIGINAL",
    "PRIMARY",
    "M",
    "MB",
    "ND",
    "MOSAIC"
],
  "ImagingFrequency": 123.259,
  "InPlanePhaseEncodingDirectionDICOM": "COL",
  "InstitutionAddress": "Chemin_Queen-Mary_4565_Montreal_District_CA_H3W_1W5",
  "InstitutionName": "IUGM",
  "InstitutionalDepartmentName": "Department",
  "MRAcquisitionType": "2D",
  "MagneticFieldStrength": 3,
  "Manufacturer": "Siemens",
  "ManufacturersModelName": "Prisma_fit",
  "Modality": "MR",
  "MultibandAccelerationFactor": 4,
  "PartialFourier": 1,
  "PatientPosition": "HFS",
  "PercentPhaseFOV": 100,
  "PhaseEncodingDirection": "j",
  "PhaseEncodingSteps": 104,
  "PhaseResolution": 1,
  "PixelBandwidth": 2290,
  "ProcedureStepDescription": "games_shinobi",
  "ProtocolName": "func_task-shinobi_run-1",
  "PulseSequenceDetails": "%CustomerSeq%_cmrr_mbep2d_bold",
  "ReceiveCoilActiveElements": "HC1-7;NC1,2",
  "ReceiveCoilName": "HeadNeck_64",
  "ReconMatrixPE": 104,
  "RepetitionTime": 1.49,
  "SAR": 0.035621,
  "ScanOptions": "FS",
  "ScanningSequence": "EP",
  "SequenceName": "epfid2d1_104",
  "SequenceVariant": "SK_SS",
  "SeriesDescription": "func_task-shinobi_run-1",
  "SeriesNumber": 9,
  "ShimSetting": [619, -7200, -8873, 349, -11, -170, -11, -22],
  "SliceThickness": 2,
  "SliceTiming": [0, 0.7825, 0.0975, 0.88, 0.195, 0.9775, 0.2925, 1.0775, 0.39, 1.175, 0.49, 1.2725, 0.5875, 1.37, 0.685, 0, 0.7825, 0.0975, 0.88, 0.195, 0.9775, 0.2925, 1.0775, 0.39, 1.175, 0.49, 1.2725, 0.5875, 1.37, 0.685, 0, 0.7825, 0.0975, 0.88, 0.195, 0.9775, 0.2925, 1.0775, 0.39, 1.175, 0.49, 1.2725, 0.5875, 1.37, 0.685, 0, 0.7825, 0.0975, 0.88, 0.195, 0.9775, 0.2925, 1.0775, 0.39, 1.175, 0.49, 1.2725, 0.5875, 1.37, 0.685],
  "SoftwareVersions": "syngo_MR_E11",
  "SpacingBetweenSlices": 2,
  "StationName": "MRC35049",
  "TaskName": "shinobi",
  "TotalReadoutTime": 0.0576811,
  "TxRefAmp": 248.293,
  "WipMemBlock": "514020bf-2f15-4f3f-a917-eb44277b95e1||Sequence: R016 ve11c/master r/e634e98; Dec 19 2017 11:00:25 by eja",
  "dcmmeta_affine": [
    [-1.9994826316833496, 0.001744785811752081, 0.045455437153577805, 106.35153198242188],
    [-0.02163013257086277, 1.721665382385254, -1.01754629611969, -49.58555603027344],
    [0.040017228573560715, 1.0177747011184692, 1.7212011814117432, -91.88162231445312],
    [0.0, 0.0, 0.0, 1.0]
],
  "dcmmeta_reorient_transform": [
    [0.0, -1.0, 0.0, 103.0],
    [1.0, 0.0, 0.0, 0.0],
    [0.0, 0.0, 1.0, 0.0],
    [0.0, 0.0, 0.0, 1.0]
],
  "dcmmeta_shape": [104, 104, 60, 448],
  "dcmmeta_slice_dim": 2,
  "dcmmeta_version": 0.6,
  "global": {
    "const": {
      "AcquisitionMatrix": [104, 0, 0, 104],
      "AngioFlag": "N",
      "BitsAllocated": 16,
      "BitsStored": 16,
      "BodyPartExamined": "BRAIN",
      "Columns": 832,
      "EchoNumbers": 1,
      "EchoTime": 37.0,
      "EchoTrainLength": 104,
      "FlipAngle": 52.0,
      "HighBit": 15,
      "ImageOrientationPatient": [0.99974131139618, 0.01081506637894, 0.02000861382159, 0.000872392892, 0.86083269556006, -0.5088873246461],
      "ImagePositionPatient": [-834.97802016158, -762.30555005483, 368.85286896115],
      "ImageType": [
        "ORIGINAL",
        "PRIMARY",
        "M",
        "MB",
        "ND",
        "MOSAIC"
],
      "ImagedNucleus": "1H",
      "ImagingFrequency": 123.259411,
      "InPlanePhaseEncodingDirection": "COL",
      "MRAcquisitionType": "2D",
      "MagneticFieldStrength": 3.0,
      "Manufacturer": "SIEMENS",
      "ManufacturerModelName": "Prisma_fit",
      "Modality": "MR",
      "NumberOfAverages": 1.0,
      "NumberOfPhaseEncodingSteps": 104,
      "PercentPhaseFieldOfView": 100.0,
      "PercentSampling": 100.0,
      "PerformedProcedureStepStartTime": "103755.530000",
      "PhotometricInterpretation": "MONOCHROME2",
      "PixelBandwidth": 2290.0,
      "PixelRepresentation": 0,
      "PixelSpacing": [2.0, 2.0],
      "ProtocolName": "func_task-shinobi_run-1",
      "RepetitionTime": 1490.0,
      "Rows": 832,
      "SAR": 0.03562100348761,
      "SamplesPerPixel": 1,
      "ScanOptions": "FS",
      "ScanningSequence": "EP",
      "SequenceName": "epfid2d1_104",
      "SequenceVariant": [
        "SK",
        "SS"
],
      "SeriesDescription": "func_task-shinobi_run-1",
      "SeriesNumber": 9,
      "SeriesTime": "104758.936000",
      "SliceLocation": -51.428449480443,
      "SliceThickness": 2.0,
      "SmallestImagePixelValue": 0,
      "SoftwareVersions": "syngo MR E11",
      "SpacingBetweenSlices": 2.0000000239778,
      "SpecificCharacterSet": "ISO_IR 100",
      "StudyID": "1",
      "StudyTime": "103755.451000",
      "TransmitCoilName": "Body",
      "VariableFlipAngleFlag": "N",
      "WindowCenterWidthExplanation": "Algo1",
      "dBdt": 0.0},
    "slices": {}
  },
  "time": {
    "samples": {
      "AcquisitionNumber": [1, 2, 3, 4, 5, 6, 7, 8, 9, 10, 11, 12, 13, 14, 15, 16, 17, 18, 19, 20, 21, 22, 23, 24, 25, 26, 27, 28, 29, 30, 31, 32, 33, 34, 35, 36, 37, 38, 39, 40, 41, 42, 43, 44, 45, 46, 47, 48, 49, 50, 51, 52, 53, 54, 55, 56, 57, 58, 59, 60, 61, 62, 63, 64, 65, 66, 67, 68, 69, 70, 71, 72, 73, 74, 75, 76, 77, 78, 79, 80, 81, 82, 83, 84, 85, 86, 87, 88, 89, 90, 91, 92, 93, 94, 95, 96, 97, 98, 99, 100, 101, 102, 103, 104, 105, 106, 107, 108, 109, 110, 111, 112, 113, 114, 115, 116, 117, 118, 119, 120, 121, 122, 123, 124, 125, 126, 127, 128, 129, 130, 131, 132, 133, 134, 135, 136, 137, 138, 139, 140, 141, 142, 143, 144, 145, 146, 147, 148, 149, 150, 151, 152, 153, 154, 155, 156, 157, 158, 159, 160, 161, 162, 163, 164, 165, 166, 167, 168, 169, 170, 171, 172, 173, 174, 175, 176, 177, 178, 179, 180, 181, 182, 183, 184, 185, 186, 187, 188, 189, 190, 191, 192, 193, 194, 195, 196, 197, 198, 199, 200, 201, 202, 203, 204, 205, 206, 207, 208, 209, 210, 211, 212, 213, 214, 215, 216, 217, 218, 219, 220, 221, 222, 223, 224, 225, 226, 227, 228, 229, 230, 231, 232, 233, 234, 235, 236, 237, 238, 239, 240, 241, 242, 243, 244, 245, 246, 247, 248, 249, 250, 251, 252, 253, 254, 255, 256, 257, 258, 259, 260, 261, 262, 263, 264, 265, 266, 267, 268, 269, 270, 271, 272, 273, 274, 275, 276, 277, 278, 279, 280, 281, 282, 283, 284, 285, 286, 287, 288, 289, 290, 291, 292, 293, 294, 295, 296, 297, 298, 299, 300, 301, 302, 303, 304, 305, 306, 307, 308, 309, 310, 311, 312, 313, 314, 315, 316, 317, 318, 319, 320, 321, 322, 323, 324, 325, 326, 327, 328, 329, 330, 331, 332, 333, 334, 335, 336, 337, 338, 339, 340, 341, 342, 343, 344, 345, 346, 347, 348, 349, 350, 351, 352, 353, 354, 355, 356, 357, 358, 359, 360, 361, 362, 363, 364, 365, 366, 367, 368, 369, 370, 371, 372, 373, 374, 375, 376, 377, 378, 379, 380, 381, 382, 383, 384, 385, 386, 387, 388, 389, 390, 391, 392, 393, 394, 395, 396, 397, 398, 399, 400, 401, 402, 403, 404, 405, 406, 407, 408, 409, 410, 411, 412, 413, 414, 415, 416, 417, 418, 419, 420, 421, 422, 423, 424, 425, 426, 427, 428, 429, 430, 431, 432, 433, 434, 435, 436, 437, 438, 439, 440, 441, 442, 443, 444, 445, 446, 447, 448],
      "AcquisitionTime": ["104644.082500", "104645.572500", "104647.062500", "104648.552500", "104650.042500", "104651.532500", "104653.022500", "104654.512500", "104656.002500", "104657.492500", "104658.982500", "104700.472500", "104701.962500", "104703.452500", "104704.942500", "104706.432500", "104707.922500", "104709.412500", "104710.902500", "104712.392500", "104713.882500", "104715.372500", "104716.862500", "104718.352500", "104719.842500", "104721.332500", "104722.822500", "104724.312500", "104725.802500", "104727.292500", "104728.782500", "104730.272500", "104731.762500", "104733.252500", "104734.742500", "104736.232500", "104737.722500", "104739.212500", "104740.702500", "104742.192500", "104743.682500", "104745.172500", "104746.662500", "104748.152500", "104749.642500", "104751.132500", "104752.622500", "104754.112500", "104755.602500", "104757.092500", "104758.582500", "104800.072500", "104801.562500", "104803.052500", "104804.542500", "104806.032500", "104807.522500", "104809.012500", "104810.502500", "104811.992500", "104813.482500", "104814.972500", "104816.462500", "104817.952500", "104819.442500", "104820.932500", "104822.422500", "104823.912500", "104825.402500", "104826.892500", "104828.382500", "104829.872500", "104831.362500", "104832.852500", "104834.342500", "104835.832500", "104837.322500", "104838.812500", "104840.302500", "104841.792500", "104843.282500", "104844.772500", "104846.262500", "104847.752500", "104849.242500", "104850.732500", "104852.222500", "104853.712500", "104855.202500", "104856.692500", "104858.182500", "104859.672500", "104901.162500", "104902.652500", "104904.142500", "104905.632500", "104907.122500", "104908.612500", "104910.102500", "104911.592500", "104913.082500", "104914.572500", "104916.062500", "104917.552500", "104919.042500", "104920.532500", "104922.022500", "104923.512500", "104925.002500", "104926.492500", "104927.982500", "104929.472500", "104930.962500", "104932.452500", "104933.942500", "104935.432500", "104936.922500", "104938.412500", "104939.902500", "104941.392500", "104942.882500", "104944.372500", "104945.862500", "104947.352500", "104948.842500", "104950.332500", "104951.822500", "104953.312500", "104954.802500", "104956.292500", "104957.782500", "104959.272500", "105000.762500", "105002.252500", "105003.742500", "105005.232500", "105006.722500", "105008.212500", "105009.702500", "105011.192500", "105012.682500", "105014.172500", "105015.662500", "105017.152500", "105018.642500", "105020.132500", "105021.622500", "105023.112500", "105024.602500", "105026.092500", "105027.582500", "105029.072500", "105030.562500", "105032.052500", "105033.542500", "105035.032500", "105036.522500", "105038.012500", "105039.502500", "105040.992500", "105042.482500", "105043.972500", "105045.462500", "105046.952500", "105048.442500", "105049.932500", "105051.422500", "105052.912500", "105054.402500", "105055.892500", "105057.382500", "105058.872500", "105100.362500", "105101.852500", "105103.342500", "105104.832500", "105106.322500", "105107.812500", "105109.302500", "105110.792500", "105112.282500", "105113.772500", "105115.262500", "105116.752500", "105118.242500", "105119.732500", "105121.222500", "105122.712500", "105124.202500", "105125.692500", "105127.182500", "105128.672500", "105130.162500", "105131.652500", "105133.142500", "105134.632500", "105136.122500", "105137.612500", "105139.102500", "105140.592500", "105142.082500", "105143.572500", "105145.062500", "105146.552500", "105148.042500", "105149.532500", "105151.022500", "105152.512500", "105154.002500", "105155.492500", "105156.982500", "105158.472500", "105159.962500", "105201.452500", "105202.942500", "105204.432500", "105205.922500", "105207.412500", "105208.902500", "105210.392500", "105211.882500", "105213.372500", "105214.862500", "105216.352500", "105217.842500", "105219.332500", "105220.822500", "105222.312500", "105223.802500", "105225.292500", "105226.782500", "105228.272500", "105229.762500", "105231.252500", "105232.742500", "105234.232500", "105235.722500", "105237.212500", "105238.702500", "105240.192500", "105241.682500", "105243.172500", "105244.662500", "105246.152500", "105247.642500", "105249.132500", "105250.622500", "105252.112500", "105253.602500", "105255.092500", "105256.582500", "105258.072500", "105259.562500", "105301.052500", "105302.542500", "105304.032500", "105305.522500", "105307.012500", "105308.502500", "105309.992500", "105311.482500", "105312.972500", "105314.462500", "105315.952500", "105317.442500", "105318.932500", "105320.422500", "105321.912500", "105323.402500", "105324.892500", "105326.382500", "105327.872500", "105329.362500", "105330.852500", "105332.342500", "105333.832500", "105335.322500", "105336.812500", "105338.302500", "105339.792500", "105341.282500", "105342.772500", "105344.262500", "105345.752500", "105347.242500", "105348.732500", "105350.222500", "105351.712500", "105353.202500", "105354.692500", "105356.182500", "105357.672500", "105359.162500", "105400.652500", "105402.142500", "105403.632500", "105405.122500", "105406.612500", "105408.102500", "105409.592500", "105411.082500", "105412.572500", "105414.062500", "105415.552500", "105417.042500", "105418.532500", "105420.022500", "105421.512500", "105423.002500", "105424.492500", "105425.982500", "105427.472500", "105428.962500", "105430.452500", "105431.942500", "105433.432500", "105434.922500", "105436.412500", "105437.902500", "105439.392500", "105440.882500", "105442.372500", "105443.862500", "105445.352500", "105446.842500", "105448.332500", "105449.822500", "105451.312500", "105452.802500", "105454.292500", "105455.782500", "105457.272500", "105458.762500", "105500.252500", "105501.742500", "105503.232500", "105504.722500", "105506.212500", "105507.702500", "105509.192500", "105510.682500", "105512.172500", "105513.662500", "105515.152500", "105516.642500", "105518.132500", "105519.622500", "105521.112500", "105522.602500", "105524.092500", "105525.582500", "105527.072500", "105528.562500", "105530.052500", "105531.542500", "105533.032500", "105534.522500", "105536.012500", "105537.502500", "105538.992500", "105540.482500", "105541.972500", "105543.462500", "105544.952500", "105546.442500", "105547.932500", "105549.422500", "105550.912500", "105552.402500", "105553.892500", "105555.382500", "105556.872500", "105558.362500", "105559.852500", "105601.342500", "105602.832500", "105604.322500", "105605.812500", "105607.302500", "105608.792500", "105610.282500", "105611.772500", "105613.262500", "105614.752500", "105616.242500", "105617.732500", "105619.222500", "105620.712500", "105622.202500", "105623.692500", "105625.182500", "105626.672500", "105628.162500", "105629.652500", "105631.142500", "105632.632500", "105634.122500", "105635.612500", "105637.102500", "105638.592500", "105640.082500", "105641.572500", "105643.062500", "105644.552500", "105646.042500", "105647.532500", "105649.022500", "105650.512500", "105652.002500", "105653.492500", "105654.982500", "105656.472500", "105657.962500", "105659.452500", "105700.942500", "105702.432500", "105703.922500", "105705.412500", "105706.902500", "105708.392500", "105709.882500", "105711.372500", "105712.862500", "105714.352500", "105715.842500", "105717.332500", "105718.822500", "105720.312500", "105721.802500", "105723.292500", "105724.782500", "105726.272500", "105727.762500", "105729.252500", "105730.742500", "105732.232500", "105733.722500", "105735.212500", "105736.702500", "105738.192500", "105739.682500", "105741.172500", "105742.662500", "105744.152500", "105745.642500", "105747.132500", "105748.622500", "105750.112500"],
      "ContentTime": ["104758.939000", "104758.942000", "104758.945000", "104758.961000", "104758.964000", "104758.967000", "104758.970000", "104758.973000", "104758.976000", "104758.979000", "104758.981000", "104758.987000", "104758.990000", "104758.992000", "104758.995000", "104758.998000", "104759.001000", "104759.009000", "104759.012000", "104759.015000", "104759.018000", "104818.909000", "104818.912000", "104818.915000", "104818.917000", "104818.920000", "104818.923000", "104818.926000", "104818.929000", "104818.932000", "104818.934000", "104818.937000", "104818.940000", "104818.943000", "104818.946000", "104818.949000", "104818.951000", "104818.954000", "104818.958000", "104818.968000", "104818.971000", "104838.909000", "104838.912000", "104838.915000", "104838.918000", "104838.921000", "104838.923000", "104838.926000", "104838.929000", "104838.932000", "104838.935000", "104838.938000", "104838.940000", "104838.943000", "104838.946000", "104838.949000", "104838.952000", "104838.954000", "104838.957000", "104838.960000", "104838.963000", "104838.966000", "104858.910000", "104858.913000", "104858.916000", "104858.918000", "104858.921000", "104858.924000", "104858.927000", "104858.930000", "104858.932000", "104858.935000", "104858.938000", "104858.941000", "104858.944000", "104858.947000", "104858.950000", "104858.953000", "104858.955000", "104858.958000", "104858.961000", "104858.964000", "104918.911000", "104918.914000", "104918.916000", "104918.919000", "104918.922000", "104918.925000", "104918.928000", "104918.930000", "104918.933000", "104918.936000", "104918.939000", "104918.942000", "104918.944000", "104918.947000", "104918.950000", "104918.953000", "104918.956000", "104918.959000", "104918.962000", "104918.964000", "104958.909000", "104958.912000", "104958.915000", "104958.918000", "104958.920000", "104958.923000", "104958.926000", "104958.934000", "104958.937000", "104958.940000", "104958.943000", "104958.945000", "104958.948000", "104958.951000", "104958.954000", "104958.957000", "104958.960000", "104958.962000", "104958.965000", "104958.968000", "104958.971000", "104958.974000", "104958.976000", "104958.979000", "104958.996000", "104958.998000", "104959.002000", "104959.005000", "105038.909000", "105038.912000", "105038.915000", "105038.917000", "105038.920000", "105038.923000", "105038.926000", "105038.929000", "105038.932000", "105038.935000", "105038.938000", "105038.941000", "105038.957000", "105038.961000", "105038.964000", "105038.966000", "105038.970000", "105038.973000", "105038.976000", "105038.979000", "105038.982000", "105038.984000", "105038.987000", "105038.990000", "105038.993000", "105038.996000", "105039.000000", "105118.910000", "105118.913000", "105118.916000", "105118.919000", "105118.921000", "105118.924000", "105118.927000", "105118.930000", "105118.933000", "105118.936000", "105118.940000", "105118.942000", "105118.945000", "105118.948000", "105118.951000", "105118.954000", "105118.957000", "105118.960000", "105118.963000", "105118.965000", "105118.968000", "105118.971000", "105118.974000", "105118.977000", "105118.980000", "105118.982000", "105158.909000", "105158.912000", "105158.915000", "105158.918000", "105158.920000", "105158.923000", "105158.926000", "105158.929000", "105158.932000", "105158.935000", "105158.938000", "105158.941000", "105158.944000", "105158.947000", "105158.949000", "105158.952000", "105158.955000", "105158.958000", "105158.961000", "105158.964000", "105158.966000", "105158.969000", "105158.972000", "105158.975000", "105158.978000", "105158.981000", "105158.983000", "105238.909000", "105238.912000", "105238.915000", "105238.917000", "105238.920000", "105238.923000", "105238.926000", "105238.929000", "105238.932000", "105238.935000", "105238.938000", "105238.941000", "105238.944000", "105238.947000", "105238.949000", "105238.952000", "105238.963000", "105238.966000", "105238.969000", "105238.972000", "105238.975000", "105238.978000", "105238.981000", "105238.983000", "105238.986000", "105238.989000", "105238.992000", "105318.910000", "105318.913000", "105318.916000", "105318.919000", "105318.921000", "105318.924000", "105318.927000", "105318.930000", "105318.933000", "105318.935000", "105318.938000", "105318.941000", "105318.944000", "105318.947000", "105318.950000", "105318.952000", "105318.955000", "105318.958000", "105318.961000", "105318.964000", "105318.967000", "105318.969000", "105318.972000", "105318.975000", "105318.978000", "105318.981000", "105318.984000", "105358.910000", "105358.913000", "105358.916000", "105358.919000", "105358.921000", "105358.924000", "105358.927000", "105358.930000", "105358.933000", "105358.935000", "105358.938000", "105358.941000", "105358.944000", "105358.947000", "105358.949000", "105358.952000", "105358.955000", "105358.958000", "105358.961000", "105358.964000", "105358.966000", "105358.969000", "105358.972000", "105358.975000", "105358.978000", "105358.981000", "105358.984000", "105438.909000", "105438.912000", "105438.915000", "105438.918000", "105438.920000", "105438.923000", "105438.926000", "105438.929000", "105438.932000", "105438.934000", "105438.937000", "105438.940000", "105438.943000", "105438.946000", "105438.949000", "105438.952000", "105438.954000", "105438.957000", "105438.960000", "105438.963000", "105438.966000", "105438.968000", "105438.971000", "105438.974000", "105438.977000", "105438.980000", "105438.983000", "105518.909000", "105518.912000", "105518.915000", "105518.918000", "105518.921000", "105518.923000", "105518.926000", "105518.929000", "105518.952000", "105518.955000", "105518.958000", "105518.961000", "105518.964000", "105518.967000", "105518.970000", "105518.973000", "105518.976000", "105518.978000", "105518.981000", "105518.984000", "105518.987000", "105518.990000", "105518.993000", "105518.996000", "105519.000000", "105519.002000", "105558.910000", "105558.913000", "105558.916000", "105558.919000", "105558.922000", "105558.925000", "105558.927000", "105558.930000", "105558.933000", "105558.936000", "105558.939000", "105558.942000", "105558.945000", "105558.948000", "105558.950000", "105558.953000", "105558.956000", "105558.959000", "105558.962000", "105558.965000", "105558.968000", "105558.970000", "105558.974000", "105558.976000", "105558.979000", "105558.982000", "105558.985000", "105638.909000", "105638.912000", "105638.915000", "105638.918000", "105638.921000", "105638.924000", "105638.927000", "105638.929000", "105638.932000", "105638.935000", "105638.938000", "105638.941000", "105638.944000", "105638.946000", "105638.949000", "105638.952000", "105638.955000", "105638.958000", "105638.960000", "105638.963000", "105638.966000", "105638.969000", "105638.972000", "105638.975000", "105638.978000", "105638.980000", "105638.983000", "105718.909000", "105718.912000", "105718.915000", "105718.918000", "105718.920000", "105718.923000", "105718.926000", "105718.929000", "105718.932000", "105718.935000", "105718.937000", "105718.940000", "105718.943000", "105718.946000", "105718.949000", "105718.951000", "105718.954000", "105718.957000", "105718.960000", "105718.963000", "105718.966000", "105718.969000", "105718.972000", "105718.975000", "105718.978000", "105718.980000", "105718.983000", "105752.860000", "105752.863000", "105752.866000", "105752.870000", "105752.873000", "105752.876000", "105752.879000", "105752.881000", "105752.884000", "105752.887000", "105752.890000", "105752.893000", "105752.896000", "105752.899000", "105752.902000", "105752.905000", "105752.908000", "105752.910000", "105752.913000", "105752.916000", "105752.919000", "105752.922000", "105752.925000"],
