{
  "AcquisitionMatrixPE": 104,
  "AcquisitionNumber": 1,
  "AcquisitionTime": "11:26:6.962500",
  "BandwidthPerPixelPhaseEncode": 17.17,
  "BaseResolution": 104,
  "BodyPartExamined": "BRAIN",
  "CoilString": "HC1-7;NC1_2",
  "ConsistencyInfo": "N4_VE11C_LATEST_20160120",
  "ConversionSoftware": "dcm2niix",
  "ConversionSoftwareVersion": "v1.0.20190902",
  "DerivedVendorReportedEchoSpacing": 0.000560011,
  "DeviceSerialNumber": "167006",
  "DwellTime": 2.1e-06,
  "EchoTime": 0.037,
  "EchoTrainLength": 104,
  "EffectiveEchoSpacing": 0.000560011,
  "FlipAngle": 52,
  "ImageComments": "Unaliased_MB4_PE3_LB",
  "ImageOrientationPatientDICOM": [0.999741, 0.0108151, 0.0200086, 0.000872393, 0.860833, -0.508887],
  "ImageType": [
    "ORIGINAL",
    "PRIMARY",
    "M",
    "MB",
    "ND",
    "MOSAIC"
],
  "ImagingFrequency": 123.259,
  "InPlanePhaseEncodingDirectionDICOM": "COL",
  "InstitutionAddress": "Chemin_Queen-Mary_4565_Montreal_District_CA_H3W_1W5",
  "InstitutionName": "IUGM",
  "InstitutionalDepartmentName": "Department",
  "MRAcquisitionType": "2D",
  "MagneticFieldStrength": 3,
  "Manufacturer": "Siemens",
  "ManufacturersModelName": "Prisma_fit",
  "Modality": "MR",
  "MultibandAccelerationFactor": 4,
  "PartialFourier": 1,
  "PatientPosition": "HFS",
  "PercentPhaseFOV": 100,
  "PhaseEncodingDirection": "j",
  "PhaseEncodingSteps": 104,
  "PhaseResolution": 1,
  "PixelBandwidth": 2290,
  "ProcedureStepDescription": "games_shinobi",
  "ProtocolName": "func_task-shinobi_run-4",
  "PulseSequenceDetails": "%CustomerSeq%_cmrr_mbep2d_bold",
  "ReceiveCoilActiveElements": "HC1-7;NC1,2",
  "ReceiveCoilName": "HeadNeck_64",
  "ReconMatrixPE": 104,
  "RepetitionTime": 1.49,
  "SAR": 0.035621,
  "ScanOptions": "FS",
  "ScanningSequence": "EP",
  "SequenceName": "epfid2d1_104",
  "SequenceVariant": "SK_SS",
  "SeriesDescription": "func_task-shinobi_run-4",
  "SeriesNumber": 15,
  "ShimSetting": [619, -7200, -8873, 349, -11, -170, -11, -22],
  "SliceThickness": 2,
  "SliceTiming": [0, 0.785, 0.0975, 0.8825, 0.195, 0.98, 0.295, 1.0775, 0.3925, 1.175, 0.49, 1.275, 0.5875, 1.3725, 0.685, 0, 0.785, 0.0975, 0.8825, 0.195, 0.98, 0.295, 1.0775, 0.3925, 1.175, 0.49, 1.275, 0.5875, 1.3725, 0.685, 0, 0.785, 0.0975, 0.8825, 0.195, 0.98, 0.295, 1.0775, 0.3925, 1.175, 0.49, 1.275, 0.5875, 1.3725, 0.685, 0, 0.785, 0.0975, 0.8825, 0.195, 0.98, 0.295, 1.0775, 0.3925, 1.175, 0.49, 1.275, 0.5875, 1.3725, 0.685],
  "SoftwareVersions": "syngo_MR_E11",
  "SpacingBetweenSlices": 2,
  "StationName": "MRC35049",
  "TaskName": "shinobi",
  "TotalReadoutTime": 0.0576811,
  "TxRefAmp": 248.293,
  "WipMemBlock": "39451ae1-6a6c-4e07-8e1e-06b70ee31e90||Sequence: R016 ve11c/master r/e634e98; Dec 19 2017 11:00:25 by eja",
  "dcmmeta_affine": [
    [-1.9994826316833496, 0.001744785811752081, 0.045455437153577805, 106.35153198242188],
    [-0.02163013257086277, 1.721665382385254, -1.01754629611969, -49.58555603027344],
    [0.040017228573560715, 1.0177747011184692, 1.7212011814117432, -91.88162231445312],
    [0.0, 0.0, 0.0, 1.0]
],
  "dcmmeta_reorient_transform": [
    [0.0, -1.0, 0.0, 103.0],
    [1.0, 0.0, 0.0, 0.0],
    [0.0, 0.0, 1.0, 0.0],
    [0.0, 0.0, 0.0, 1.0]
],
  "dcmmeta_shape": [104, 104, 60, 481],
  "dcmmeta_slice_dim": 2,
  "dcmmeta_version": 0.6,
  "global": {
    "const": {
      "AcquisitionMatrix": [104, 0, 0, 104],
      "AngioFlag": "N",
      "BitsAllocated": 16,
      "BitsStored": 16,
      "BodyPartExamined": "BRAIN",
      "Columns": 832,
      "EchoNumbers": 1,
      "EchoTime": 37.0,
      "EchoTrainLength": 104,
      "FlipAngle": 52.0,
      "HighBit": 15,
      "ImageOrientationPatient": [0.99974131139618, 0.01081506637894, 0.02000861382159, 0.000872392892, 0.86083269556006, -0.5088873246461],
      "ImagePositionPatient": [-834.97802016158, -762.30555005483, 368.85286896115],
      "ImageType": [
        "ORIGINAL",
        "PRIMARY",
        "M",
        "MB",
        "ND",
        "MOSAIC"
],
      "ImagedNucleus": "1H",
      "ImagingFrequency": 123.259417,
      "InPlanePhaseEncodingDirection": "COL",
      "MRAcquisitionType": "2D",
      "MagneticFieldStrength": 3.0,
      "Manufacturer": "SIEMENS",
      "ManufacturerModelName": "Prisma_fit",
      "Modality": "MR",
      "NumberOfAverages": 1.0,
      "NumberOfPhaseEncodingSteps": 104,
      "PercentPhaseFieldOfView": 100.0,
      "PercentSampling": 100.0,
      "PerformedProcedureStepStartTime": "103755.530000",
      "PhotometricInterpretation": "MONOCHROME2",
      "PixelBandwidth": 2290.0,
      "PixelRepresentation": 0,
      "PixelSpacing": [2.0, 2.0],
      "ProtocolName": "func_task-shinobi_run-4",
      "RepetitionTime": 1490.0,
      "Rows": 832,
      "SAR": 0.03562100348761,
      "SamplesPerPixel": 1,
      "ScanOptions": "FS",
      "ScanningSequence": "EP",
      "SequenceName": "epfid2d1_104",
      "SequenceVariant": [
        "SK",
        "SS"
],
      "SeriesDescription": "func_task-shinobi_run-4",
      "SeriesNumber": 15,
      "SeriesTime": "112738.937000",
      "SliceLocation": -51.428449480443,
      "SliceThickness": 2.0,
      "SmallestImagePixelValue": 0,
      "SoftwareVersions": "syngo MR E11",
      "SpacingBetweenSlices": 2.0000000239778,
      "SpecificCharacterSet": "ISO_IR 100",
      "StudyID": "1",
      "StudyTime": "103755.451000",
      "TransmitCoilName": "Body",
      "VariableFlipAngleFlag": "N",
      "WindowCenterWidthExplanation": "Algo1",
      "dBdt": 0.0},
    "slices": {}
  },
  "time": {
    "samples": {
      "AcquisitionNumber": [1, 2, 3, 4, 5, 6, 7, 8, 9, 10, 11, 12, 13, 14, 15, 16, 17, 18, 19, 20, 21, 22, 23, 24, 25, 26, 27, 28, 29, 30, 31, 32, 33, 34, 35, 36, 37, 38, 39, 40, 41, 42, 43, 44, 45, 46, 47, 48, 49, 50, 51, 52, 53, 54, 55, 56, 57, 58, 59, 60, 61, 62, 63, 64, 65, 66, 67, 68, 69, 70, 71, 72, 73, 74, 75, 76, 77, 78, 79, 80, 81, 82, 83, 84, 85, 86, 87, 88, 89, 90, 91, 92, 93, 94, 95, 96, 97, 98, 99, 100, 101, 102, 103, 104, 105, 106, 107, 108, 109, 110, 111, 112, 113, 114, 115, 116, 117, 118, 119, 120, 121, 122, 123, 124, 125, 126, 127, 128, 129, 130, 131, 132, 133, 134, 135, 136, 137, 138, 139, 140, 141, 142, 143, 144, 145, 146, 147, 148, 149, 150, 151, 152, 153, 154, 155, 156, 157, 158, 159, 160, 161, 162, 163, 164, 165, 166, 167, 168, 169, 170, 171, 172, 173, 174, 175, 176, 177, 178, 179, 180, 181, 182, 183, 184, 185, 186, 187, 188, 189, 190, 191, 192, 193, 194, 195, 196, 197, 198, 199, 200, 201, 202, 203, 204, 205, 206, 207, 208, 209, 210, 211, 212, 213, 214, 215, 216, 217, 218, 219, 220, 221, 222, 223, 224, 225, 226, 227, 228, 229, 230, 231, 232, 233, 234, 235, 236, 237, 238, 239, 240, 241, 242, 243, 244, 245, 246, 247, 248, 249, 250, 251, 252, 253, 254, 255, 256, 257, 258, 259, 260, 261, 262, 263, 264, 265, 266, 267, 268, 269, 270, 271, 272, 273, 274, 275, 276, 277, 278, 279, 280, 281, 282, 283, 284, 285, 286, 287, 288, 289, 290, 291, 292, 293, 294, 295, 296, 297, 298, 299, 300, 301, 302, 303, 304, 305, 306, 307, 308, 309, 310, 311, 312, 313, 314, 315, 316, 317, 318, 319, 320, 321, 322, 323, 324, 325, 326, 327, 328, 329, 330, 331, 332, 333, 334, 335, 336, 337, 338, 339, 340, 341, 342, 343, 344, 345, 346, 347, 348, 349, 350, 351, 352, 353, 354, 355, 356, 357, 358, 359, 360, 361, 362, 363, 364, 365, 366, 367, 368, 369, 370, 371, 372, 373, 374, 375, 376, 377, 378, 379, 380, 381, 382, 383, 384, 385, 386, 387, 388, 389, 390, 391, 392, 393, 394, 395, 396, 397, 398, 399, 400, 401, 402, 403, 404, 405, 406, 407, 408, 409, 410, 411, 412, 413, 414, 415, 416, 417, 418, 419, 420, 421, 422, 423, 424, 425, 426, 427, 428, 429, 430, 431, 432, 433, 434, 435, 436, 437, 438, 439, 440, 441, 442, 443, 444, 445, 446, 447, 448, 449, 450, 451, 452, 453, 454, 455, 456, 457, 458, 459, 460, 461, 462, 463, 464, 465, 466, 467, 468, 469, 470, 471, 472, 473, 474, 475, 476, 477, 478, 479, 480, 481],
      "AcquisitionTime": ["112606.962500", "112608.452500", "112609.942500", "112611.432500", "112612.922500", "112614.412500", "112615.902500", "112617.392500", "112618.882500", "112620.372500", "112621.862500", "112623.352500", "112624.842500", "112626.332500", "112627.822500", "112629.312500", "112630.802500", "112632.292500", "112633.782500", "112635.272500", "112636.762500", "112638.252500", "112639.742500", "112641.232500", "112642.722500", "112644.212500", "112645.702500", "112647.192500", "112648.682500", "112650.172500", "112651.662500", "112653.152500", "112654.642500", "112656.132500", "112657.622500", "112659.112500", "112700.602500", "112702.092500", "112703.582500", "112705.072500", "112706.562500", "112708.052500", "112709.542500", "112711.032500", "112712.522500", "112714.012500", "112715.502500", "112716.992500", "112718.482500", "112719.972500", "112721.462500", "112722.952500", "112724.442500", "112725.932500", "112727.422500", "112728.912500", "112730.402500", "112731.892500", "112733.382500", "112734.872500", "112736.362500", "112737.852500", "112739.342500", "112740.832500", "112742.322500", "112743.812500", "112745.302500", "112746.792500", "112748.282500", "112749.772500", "112751.262500", "112752.752500", "112754.242500", "112755.732500", "112757.222500", "112758.712500", "112800.202500", "112801.692500", "112803.182500", "112804.672500", "112806.162500", "112807.652500", "112809.142500", "112810.632500", "112812.122500", "112813.612500", "112815.102500", "112816.592500", "112818.082500", "112819.572500", "112821.062500", "112822.552500", "112824.042500", "112825.532500", "112827.022500", "112828.512500", "112830.002500", "112831.492500", "112832.982500", "112834.472500", "112835.962500", "112837.452500", "112838.942500", "112840.432500", "112841.922500", "112843.412500", "112844.902500", "112846.392500", "112847.882500", "112849.372500", "112850.862500", "112852.352500", "112853.842500", "112855.332500", "112856.822500", "112858.312500", "112859.802500", "112901.292500", "112902.782500", "112904.272500", "112905.762500", "112907.252500", "112908.742500", "112910.232500", "112911.722500", "112913.212500", "112914.702500", "112916.192500", "112917.682500", "112919.172500", "112920.662500", "112922.152500", "112923.642500", "112925.132500", "112926.622500", "112928.112500", "112929.602500", "112931.092500", "112932.582500", "112934.072500", "112935.562500", "112937.052500", "112938.542500", "112940.032500", "112941.522500", "112943.012500", "112944.502500", "112945.992500", "112947.482500", "112948.972500", "112950.462500", "112951.952500", "112953.442500", "112954.932500", "112956.422500", "112957.912500", "112959.402500", "113000.892500", "113002.382500", "113003.872500", "113005.362500", "113006.852500", "113008.342500", "113009.832500", "113011.322500", "113012.812500", "113014.302500", "113015.792500", "113017.282500", "113018.772500", "113020.262500", "113021.752500", "113023.242500", "113024.732500", "113026.222500", "113027.712500", "113029.202500", "113030.692500", "113032.182500", "113033.672500", "113035.162500", "113036.652500", "113038.142500", "113039.632500", "113041.122500", "113042.612500", "113044.102500", "113045.592500", "113047.082500", "113048.572500", "113050.062500", "113051.552500", "113053.042500", "113054.532500", "113056.022500", "113057.512500", "113059.002500", "113100.492500", "113101.982500", "113103.472500", "113104.962500", "113106.452500", "113107.942500", "113109.432500", "113110.922500", "113112.412500", "113113.902500", "113115.392500", "113116.882500", "113118.372500", "113119.862500", "113121.352500", "113122.842500", "113124.332500", "113125.822500", "113127.312500", "113128.802500", "113130.292500", "113131.782500", "113133.272500", "113134.762500", "113136.252500", "113137.742500", "113139.232500", "113140.722500", "113142.212500", "113143.702500", "113145.192500", "113146.682500", "113148.172500", "113149.662500", "113151.152500", "113152.642500", "113154.132500", "113155.622500", "113157.112500", "113158.602500", "113200.092500", "113201.582500", "113203.072500", "113204.562500", "113206.052500", "113207.542500", "113209.032500", "113210.522500", "113212.012500", "113213.502500", "113214.992500", "113216.482500", "113217.972500", "113219.462500", "113220.952500", "113222.442500", "113223.932500", "113225.422500", "113226.912500", "113228.402500", "113229.892500", "113231.382500", "113232.872500", "113234.362500", "113235.852500", "113237.342500", "113238.832500", "113240.322500", "113241.812500", "113243.302500", "113244.792500", "113246.282500", "113247.772500", "113249.262500", "113250.752500", "113252.242500", "113253.732500", "113255.222500", "113256.712500", "113258.202500", "113259.692500", "113301.182500", "113302.672500", "113304.162500", "113305.652500", "113307.142500", "113308.632500", "113310.122500", "113311.612500", "113313.102500", "113314.592500", "113316.082500", "113317.572500", "113319.062500", "113320.552500", "113322.042500", "113323.532500", "113325.022500", "113326.512500", "113328.002500", "113329.492500", "113330.982500", "113332.472500", "113333.962500", "113335.452500", "113336.942500", "113338.432500", "113339.922500", "113341.412500", "113342.902500", "113344.392500", "113345.882500", "113347.372500", "113348.862500", "113350.352500", "113351.842500", "113353.332500", "113354.822500", "113356.312500", "113357.802500", "113359.292500", "113400.782500", "113402.272500", "113403.762500", "113405.252500", "113406.742500", "113408.232500", "113409.722500", "113411.212500", "113412.702500", "113414.192500", "113415.682500", "113417.172500", "113418.662500", "113420.152500", "113421.642500", "113423.132500", "113424.622500", "113426.112500", "113427.602500", "113429.092500", "113430.582500", "113432.072500", "113433.562500", "113435.052500", "113436.542500", "113438.032500", "113439.522500", "113441.012500", "113442.502500", "113443.992500", "113445.482500", "113446.972500", "113448.462500", "113449.952500", "113451.442500", "113452.932500", "113454.422500", "113455.912500", "113457.402500", "113458.892500", "113500.382500", "113501.872500", "113503.362500", "113504.852500", "113506.342500", "113507.832500", "113509.322500", "113510.812500", "113512.302500", "113513.792500", "113515.282500", "113516.772500", "113518.262500", "113519.752500", "113521.242500", "113522.732500", "113524.222500", "113525.712500", "113527.202500", "113528.692500", "113530.182500", "113531.672500", "113533.162500", "113534.652500", "113536.142500", "113537.632500", "113539.122500", "113540.612500", "113542.102500", "113543.592500", "113545.082500", "113546.572500", "113548.062500", "113549.552500", "113551.042500", "113552.532500", "113554.022500", "113555.512500", "113557.002500", "113558.492500", "113559.982500", "113601.472500", "113602.962500", "113604.452500", "113605.942500", "113607.432500", "113608.922500", "113610.412500", "113611.902500", "113613.392500", "113614.882500", "113616.372500", "113617.862500", "113619.352500", "113620.842500", "113622.332500", "113623.822500", "113625.312500", "113626.802500", "113628.292500", "113629.782500", "113631.272500", "113632.762500", "113634.252500", "113635.742500", "113637.232500", "113638.722500", "113640.212500", "113641.702500", "113643.192500", "113644.682500", "113646.172500", "113647.662500", "113649.152500", "113650.642500", "113652.132500", "113653.622500", "113655.112500", "113656.602500", "113658.092500", "113659.582500", "113701.072500", "113702.562500", "113704.052500", "113705.542500", "113707.032500", "113708.522500", "113710.012500", "113711.502500", "113712.992500", "113714.482500", "113715.972500", "113717.462500", "113718.952500", "113720.442500", "113721.932500", "113723.422500", "113724.912500", "113726.402500", "113727.892500", "113729.382500", "113730.872500", "113732.362500", "113733.852500", "113735.342500", "113736.832500", "113738.322500", "113739.812500", "113741.302500", "113742.792500", "113744.282500", "113745.772500", "113747.262500", "113748.752500", "113750.242500", "113751.732500", "113753.222500", "113754.712500", "113756.202500", "113757.692500", "113759.182500", "113800.672500", "113802.162500"],
      "ContentTime": ["112738.939000", "112738.943000", "112738.945000", "112738.948000", "112738.951000", "112738.954000", "112738.957000", "112738.959000", "112738.962000", "112738.965000", "112738.968000", "112738.971000", "112738.974000", "112738.976000", "112738.984000", "112738.986000", "112738.989000", "112738.992000", "112739.002000", "112739.005000", "112739.007000", "112739.010000", "112739.013000", "112739.016000", "112739.019000", "112739.022000", "112739.024000", "112739.027000", "112739.030000", "112739.033000", "112739.036000", "112739.038000", "112739.041000", "112739.044000", "112739.047000", "112739.050000", "112739.053000", "112739.055000", "112758.909000", "112758.912000", "112758.915000", "112758.917000", "112758.920000", "112758.923000", "112758.926000", "112758.929000", "112758.931000", "112758.934000", "112758.937000", "112758.940000", "112758.943000", "112758.945000", "112758.952000", "112758.955000", "112758.958000", "112758.961000", "112758.963000", "112758.966000", "112818.910000", "112818.913000", "112818.916000", "112818.918000", "112818.921000", "112818.924000", "112818.927000", "112818.930000", "112818.933000", "112818.936000", "112818.938000", "112818.941000", "112818.944000", "112818.947000", "112818.950000", "112818.952000", "112818.955000", "112818.958000", "112818.961000", "112818.964000", "112838.910000", "112838.913000", "112838.915000", "112838.918000", "112838.921000", "112838.924000", "112838.927000", "112838.929000", "112838.932000", "112838.935000", "112838.938000", "112838.941000", "112838.944000", "112838.946000", "112838.949000", "112838.952000", "112838.955000", "112838.957000", "112838.960000", "112838.963000", "112918.909000", "112918.912000", "112918.915000", "112918.918000", "112918.921000", "112918.923000", "112918.926000", "112918.929000", "112918.932000", "112918.935000", "112918.938000", "112918.940000", "112918.943000", "112918.946000", "112918.949000", "112918.952000", "112918.954000", "112918.957000", "112918.960000", "112918.963000", "112918.966000", "112918.968000", "112918.971000", "112918.974000", "112918.977000", "112918.987000", "112918.990000", "112918.993000", "112918.996000", "112918.998000", "112958.909000", "112958.912000", "112958.915000", "112958.918000", "112958.921000", "112958.923000", "112958.926000", "112958.929000", "112958.932000", "112958.935000", "112958.937000", "112958.940000", "112958.943000", "112958.946000", "112958.949000", "112958.952000", "112958.954000", "112958.957000", "112958.960000", "112958.963000", "112958.966000", "112958.968000", "112958.971000", "112958.974000", "112958.977000", "112958.980000", "112958.982000", "113038.910000", "113038.913000", "113038.916000", "113038.919000", "113038.921000", "113038.924000", "113038.927000", "113038.930000", "113038.933000", "113038.935000", "113038.938000", "113038.941000", "113038.944000", "113038.947000", "113038.950000", "113038.952000", "113038.955000", "113038.958000", "113038.961000", "113038.964000", "113038.966000", "113038.969000", "113038.972000", "113038.975000", "113038.978000", "113038.980000", "113038.983000", "113118.909000", "113118.912000", "113118.915000", "113118.918000", "113118.929000", "113118.932000", "113118.935000", "113118.938000", "113118.941000", "113118.944000", "113118.946000", "113118.949000", "113118.952000", "113118.955000", "113118.958000", "113118.961000", "113118.964000", "113118.966000", "113118.969000", "113118.972000", "113118.975000", "113118.978000", "113118.981000", "113118.983000", "113118.986000", "113118.989000", "113118.992000", "113158.909000", "113158.912000", "113158.915000", "113158.918000", "113158.920000", "113158.923000", "113158.926000", "113158.929000", "113158.932000", "113158.935000", "113158.938000", "113158.941000", "113158.944000", "113158.946000", "113158.949000", "113158.952000", "113158.955000", "113158.958000", "113158.960000", "113158.963000", "113158.966000", "113158.969000", "113158.972000", "113158.974000", "113158.977000", "113158.989000", "113238.909000", "113238.912000", "113238.915000", "113238.918000", "113238.920000", "113238.923000", "113238.938000", "113238.941000", "113238.944000", "113238.946000", "113238.949000", "113238.952000", "113238.955000", "113238.958000", "113238.961000", "113238.963000", "113238.966000", "113238.969000", "113238.972000", "113238.975000", "113238.978000", "113238.980000", "113238.983000", "113238.986000", "113238.989000", "113238.992000", "113238.994000", "113318.910000", "113318.913000", "113318.916000", "113318.919000", "113318.922000", "113318.924000", "113318.927000", "113318.930000", "113318.933000", "113318.936000", "113318.939000", "113318.941000", "113318.944000", "113318.947000", "113318.950000", "113318.953000", "113318.956000", "113318.958000", "113318.961000", "113318.964000", "113318.967000", "113318.970000", "113318.972000", "113318.975000", "113318.978000", "113318.981000", "113318.984000", "113358.909000", "113358.912000", "113358.915000", "113358.918000", "113358.921000", "113358.923000", "113358.926000", "113358.929000", "113358.932000", "113358.935000", "113358.937000", "113358.940000", "113358.943000", "113358.946000", "113358.949000", "113358.952000", "113358.954000", "113358.957000", "113358.960000", "113358.963000", "113358.966000", "113358.969000", "113358.971000", "113358.974000", "113358.977000", "113358.980000", "113358.983000", "113438.909000", "113438.912000", "113438.915000", "113438.918000", "113438.921000", "113438.923000", "113438.926000", "113438.929000", "113438.932000", "113438.935000", "113438.938000", "113438.940000", "113438.943000", "113438.946000", "113438.957000", "113438.960000", "113438.963000", "113438.966000", "113438.969000", "113438.972000", "113438.974000", "113438.977000", "113438.980000", "113438.983000", "113438.986000", "113438.989000", "113438.992000", "113518.910000", "113518.913000", "113518.916000", "113518.919000", "113518.921000", "113518.924000", "113518.927000", "113518.930000", "113518.933000", "113518.936000", "113518.938000", "113518.941000", "113518.944000", "113518.947000", "113518.950000", "113518.952000", "113518.955000", "113518.958000", "113518.961000", "113518.964000", "113518.967000", "113518.970000", "113518.972000", "113518.975000", "113518.978000", "113518.981000", "113518.984000", "113558.909000", "113558.912000", "113558.915000", "113558.918000", "113558.921000", "113558.924000", "113558.926000", "113558.929000", "113558.932000", "113558.935000", "113558.938000", "113558.941000", "113558.944000", "113558.946000", "113558.949000", "113558.952000", "113558.955000", "113558.958000", "113558.960000", "113558.963000", "113558.966000", "113558.969000", "113558.987000", "113558.990000", "113558.993000", "113558.995000", "113558.998000", "113638.909000", "113638.912000", "113638.915000", "113638.918000", "113638.920000", "113638.923000", "113638.926000", "113638.929000", "113638.932000", "113638.935000", "113638.937000", "113638.940000", "113638.943000", "113638.946000", "113638.949000", "113638.951000", "113638.954000", "113638.957000", "113638.960000", "113638.963000", "113638.966000", "113638.968000", "113638.971000", "113638.974000", "113638.977000", "113638.980000", "113718.910000", "113718.913000", "113718.916000", "113718.918000", "113718.921000", "113718.924000", "113718.927000", "113718.930000", "113718.933000", "113718.935000", "113718.938000", "113718.941000", "113718.944000", "113718.947000", "113718.950000", "113718.953000", "113718.955000", "113718.958000", "113718.961000", "113718.964000", "113718.967000", "113718.969000", "113718.972000", "113718.975000", "113718.978000", "113718.981000", "113718.984000", "113758.910000", "113758.913000", "113758.916000", "113758.919000", "113758.921000", "113758.924000", "113758.927000", "113758.930000", "113758.933000", "113758.936000", "113758.938000", "113758.941000", "113758.944000", "113758.947000", "113758.950000", "113758.953000", "113758.955000", "113758.958000", "113758.961000", "113758.964000", "113758.967000", "113758.970000", "113758.972000", "113758.975000", "113758.978000", "113758.981000", "113758.984000", "113804.187000", "113804.191000", "113804.194000", "113804.197000"],
