{
  "AcquisitionMatrixPE": 104,
  "AcquisitionNumber": 1,
  "AcquisitionTime": "11:16:25.495000",
  "BandwidthPerPixelPhaseEncode": 17.17,
  "BaseResolution": 104,
  "BodyPartExamined": "BRAIN",
  "CoilString": "HC1-7;NC1_2",
  "ConsistencyInfo": "N4_VE11C_LATEST_20160120",
  "ConversionSoftware": "dcm2niix",
  "ConversionSoftwareVersion": "v1.0.20190902",
  "DerivedVendorReportedEchoSpacing": 0.000560011,
  "DeviceSerialNumber": "167006",
  "DwellTime": 2.1e-06,
  "EchoTime": 0.037,
  "EchoTrainLength": 104,
  "EffectiveEchoSpacing": 0.000560011,
  "FlipAngle": 52,
  "ImageComments": "Unaliased_MB4_PE3_LB",
  "ImageOrientationPatientDICOM": [0.999448, 0.00658743, 0.0325533, 0.0113388, 0.853572, -0.520851],
  "ImageType": [
    "ORIGINAL",
    "PRIMARY",
    "M",
    "MB",
    "ND",
    "MOSAIC"
],
  "ImagingFrequency": 123.259,
  "InPlanePhaseEncodingDirectionDICOM": "COL",
  "InstitutionAddress": "Chemin_Queen-Mary_4565_Montreal_District_CA_H3W_1W5",
  "InstitutionName": "IUGM",
  "InstitutionalDepartmentName": "Department",
  "MRAcquisitionType": "2D",
  "MagneticFieldStrength": 3,
  "Manufacturer": "Siemens",
  "ManufacturersModelName": "Prisma_fit",
  "Modality": "MR",
  "MultibandAccelerationFactor": 4,
  "PartialFourier": 1,
  "PatientPosition": "HFS",
  "PercentPhaseFOV": 100,
  "PhaseEncodingDirection": "j",
  "PhaseEncodingSteps": 104,
  "PhaseResolution": 1,
  "PixelBandwidth": 2290,
  "ProcedureStepDescription": "games_shinobi",
  "ProtocolName": "func_task-shinobi_run-1",
  "PulseSequenceDetails": "%CustomerSeq%_cmrr_mbep2d_bold",
  "ReceiveCoilActiveElements": "HC1-7;NC1,2",
  "ReceiveCoilName": "HeadNeck_64",
  "ReconMatrixPE": 104,
  "RepetitionTime": 1.49,
  "SAR": 0.0337908,
  "ScanOptions": "FS",
  "ScanningSequence": "EP",
  "SequenceName": "epfid2d1_104",
  "SequenceVariant": "SK_SS",
  "SeriesDescription": "func_task-shinobi_run-1",
  "SeriesNumber": 11,
  "ShimSetting": [625, -7200, -8886, 360, -24, -190, 10, -22],
  "SliceThickness": 2,
  "SliceTiming": [0, 0.785, 0.0975, 0.8825, 0.1975, 0.98, 0.295, 1.0775, 0.3925, 1.1775, 0.49, 1.275, 0.5875, 1.3725, 0.6875, 0, 0.785, 0.0975, 0.8825, 0.1975, 0.98, 0.295, 1.0775, 0.3925, 1.1775, 0.49, 1.275, 0.5875, 1.3725, 0.6875, 0, 0.785, 0.0975, 0.8825, 0.1975, 0.98, 0.295, 1.0775, 0.3925, 1.1775, 0.49, 1.275, 0.5875, 1.3725, 0.6875, 0, 0.785, 0.0975, 0.8825, 0.1975, 0.98, 0.295, 1.0775, 0.3925, 1.1775, 0.49, 1.275, 0.5875, 1.3725, 0.6875],
  "SoftwareVersions": "syngo_MR_E11",
  "SpacingBetweenSlices": 2,
  "StationName": "MRC35049",
  "TaskName": "shinobi",
  "TotalReadoutTime": 0.0576811,
  "TxRefAmp": 245.156,
  "WipMemBlock": "934df2e8-02e8-429a-9f3c-e9b9ff4c4be5||Sequence: R016 ve11c/master r/e634e98; Dec 19 2017 11:00:25 by eja",
  "dcmmeta_affine": [
    [-1.998896598815918, 0.022677671164274216, 0.06243541091680527, 104.33401489257812],
    [-0.013174869120121002, 1.707144856452942, -1.0418651103973389, -49.25880432128906],
    [0.06510668247938156, 1.0417015552520752, 1.706053614616394, -100.60205078125],
    [0.0, 0.0, 0.0, 1.0]
],
  "dcmmeta_reorient_transform": [
    [0.0, -1.0, 0.0, 103.0],
    [1.0, 0.0, 0.0, 0.0],
    [0.0, 0.0, 1.0, 0.0],
    [0.0, 0.0, 0.0, 1.0]
],
  "dcmmeta_shape": [104, 104, 60, 461],
  "dcmmeta_slice_dim": 2,
  "dcmmeta_version": 0.6,
  "global": {
    "const": {
      "AcquisitionMatrix": [104, 0, 0, 104],
      "AngioFlag": "N",
      "BitsAllocated": 16,
      "BitsStored": 16,
      "BodyPartExamined": "BRAIN",
      "Columns": 832,
      "EchoNumbers": 1,
      "EchoTime": 37.0,
      "EchoTrainLength": 104,
      "FlipAngle": 52.0,
      "HighBit": 15,
      "ImageOrientationPatient": [0.99944829067512, 0.00658743464405, 0.0325533404031, 0.01133883549158, 0.85357243788567, -0.5208507695028],
      "ImagePositionPatient": [-842.52284150347, -752.77350497256, 362.17373551653],
      "ImageType": [
        "ORIGINAL",
        "PRIMARY",
        "M",
        "MB",
        "ND",
        "MOSAIC"
],
      "ImagedNucleus": "1H",
      "ImagingFrequency": 123.259055,
      "InPlanePhaseEncodingDirection": "COL",
      "MRAcquisitionType": "2D",
      "MagneticFieldStrength": 3.0,
      "Manufacturer": "SIEMENS",
      "ManufacturerModelName": "Prisma_fit",
      "Modality": "MR",
      "NumberOfAverages": 1.0,
      "NumberOfPhaseEncodingSteps": 104,
      "PercentPhaseFieldOfView": 100.0,
      "PercentSampling": 100.0,
      "PerformedProcedureStepStartTime": "104131.841000",
      "PhotometricInterpretation": "MONOCHROME2",
      "PixelBandwidth": 2290.0,
      "PixelRepresentation": 0,
      "PixelSpacing": [2.0, 2.0],
      "ProtocolName": "func_task-shinobi_run-1",
      "RepetitionTime": 1490.0,
      "Rows": 832,
      "SAR": 0.03379076388462,
      "SamplesPerPixel": 1,
      "ScanOptions": "FS",
      "ScanningSequence": "EP",
      "SequenceName": "epfid2d1_104",
      "SequenceVariant": [
        "SK",
        "SS"
],
      "SeriesDescription": "func_task-shinobi_run-1",
      "SeriesNumber": 11,
      "SeriesTime": "111746.134000",
      "SliceLocation": -56.898666056974,
      "SliceThickness": 2.0,
      "SmallestImagePixelValue": 0,
      "SoftwareVersions": "syngo MR E11",
      "SpacingBetweenSlices": 2.0000000028909,
      "SpecificCharacterSet": "ISO_IR 100",
      "StudyID": "1",
      "StudyTime": "104131.746000",
      "TransmitCoilName": "Body",
      "VariableFlipAngleFlag": "N",
      "WindowCenterWidthExplanation": "Algo1",
      "dBdt": 0.0},
    "slices": {}
  },
  "time": {
    "samples": {
      "AcquisitionNumber": [1, 2, 3, 4, 5, 6, 7, 8, 9, 10, 11, 12, 13, 14, 15, 16, 17, 18, 19, 20, 21, 22, 23, 24, 25, 26, 27, 28, 29, 30, 31, 32, 33, 34, 35, 36, 37, 38, 39, 40, 41, 42, 43, 44, 45, 46, 47, 48, 49, 50, 51, 52, 53, 54, 55, 56, 57, 58, 59, 60, 61, 62, 63, 64, 65, 66, 67, 68, 69, 70, 71, 72, 73, 74, 75, 76, 77, 78, 79, 80, 81, 82, 83, 84, 85, 86, 87, 88, 89, 90, 91, 92, 93, 94, 95, 96, 97, 98, 99, 100, 101, 102, 103, 104, 105, 106, 107, 108, 109, 110, 111, 112, 113, 114, 115, 116, 117, 118, 119, 120, 121, 122, 123, 124, 125, 126, 127, 128, 129, 130, 131, 132, 133, 134, 135, 136, 137, 138, 139, 140, 141, 142, 143, 144, 145, 146, 147, 148, 149, 150, 151, 152, 153, 154, 155, 156, 157, 158, 159, 160, 161, 162, 163, 164, 165, 166, 167, 168, 169, 170, 171, 172, 173, 174, 175, 176, 177, 178, 179, 180, 181, 182, 183, 184, 185, 186, 187, 188, 189, 190, 191, 192, 193, 194, 195, 196, 197, 198, 199, 200, 201, 202, 203, 204, 205, 206, 207, 208, 209, 210, 211, 212, 213, 214, 215, 216, 217, 218, 219, 220, 221, 222, 223, 224, 225, 226, 227, 228, 229, 230, 231, 232, 233, 234, 235, 236, 237, 238, 239, 240, 241, 242, 243, 244, 245, 246, 247, 248, 249, 250, 251, 252, 253, 254, 255, 256, 257, 258, 259, 260, 261, 262, 263, 264, 265, 266, 267, 268, 269, 270, 271, 272, 273, 274, 275, 276, 277, 278, 279, 280, 281, 282, 283, 284, 285, 286, 287, 288, 289, 290, 291, 292, 293, 294, 295, 296, 297, 298, 299, 300, 301, 302, 303, 304, 305, 306, 307, 308, 309, 310, 311, 312, 313, 314, 315, 316, 317, 318, 319, 320, 321, 322, 323, 324, 325, 326, 327, 328, 329, 330, 331, 332, 333, 334, 335, 336, 337, 338, 339, 340, 341, 342, 343, 344, 345, 346, 347, 348, 349, 350, 351, 352, 353, 354, 355, 356, 357, 358, 359, 360, 361, 362, 363, 364, 365, 366, 367, 368, 369, 370, 371, 372, 373, 374, 375, 376, 377, 378, 379, 380, 381, 382, 383, 384, 385, 386, 387, 388, 389, 390, 391, 392, 393, 394, 395, 396, 397, 398, 399, 400, 401, 402, 403, 404, 405, 406, 407, 408, 409, 410, 411, 412, 413, 414, 415, 416, 417, 418, 419, 420, 421, 422, 423, 424, 425, 426, 427, 428, 429, 430, 431, 432, 433, 434, 435, 436, 437, 438, 439, 440, 441, 442, 443, 444, 445, 446, 447, 448, 449, 450, 451, 452, 453, 454, 455, 456, 457, 458, 459, 460, 461],
      "AcquisitionTime": ["111625.495000", "111626.985000", "111628.475000", "111629.965000", "111631.455000", "111632.945000", "111634.435000", "111635.925000", "111637.415000", "111638.905000", "111640.395000", "111641.885000", "111643.375000", "111644.865000", "111646.355000", "111647.845000", "111649.335000", "111650.825000", "111652.315000", "111653.805000", "111655.295000", "111656.785000", "111658.275000", "111659.765000", "111701.255000", "111702.745000", "111704.235000", "111705.725000", "111707.215000", "111708.705000", "111710.195000", "111711.685000", "111713.175000", "111714.665000", "111716.155000", "111717.645000", "111719.135000", "111720.625000", "111722.115000", "111723.605000", "111725.095000", "111726.585000", "111728.075000", "111729.565000", "111731.055000", "111732.545000", "111734.035000", "111735.525000", "111737.015000", "111738.505000", "111739.995000", "111741.485000", "111742.975000", "111744.465000", "111745.955000", "111747.445000", "111748.935000", "111750.425000", "111751.915000", "111753.405000", "111754.895000", "111756.385000", "111757.875000", "111759.365000", "111800.855000", "111802.345000", "111803.835000", "111805.325000", "111806.815000", "111808.305000", "111809.795000", "111811.285000", "111812.775000", "111814.265000", "111815.755000", "111817.245000", "111818.735000", "111820.225000", "111821.715000", "111823.205000", "111824.695000", "111826.185000", "111827.675000", "111829.165000", "111830.655000", "111832.145000", "111833.635000", "111835.125000", "111836.615000", "111838.105000", "111839.595000", "111841.085000", "111842.575000", "111844.065000", "111845.555000", "111847.045000", "111848.535000", "111850.025000", "111851.515000", "111853.005000", "111854.495000", "111855.985000", "111857.475000", "111858.965000", "111900.455000", "111901.945000", "111903.435000", "111904.925000", "111906.415000", "111907.905000", "111909.395000", "111910.885000", "111912.375000", "111913.865000", "111915.355000", "111916.845000", "111918.335000", "111919.825000", "111921.315000", "111922.805000", "111924.295000", "111925.785000", "111927.275000", "111928.765000", "111930.255000", "111931.745000", "111933.235000", "111934.725000", "111936.215000", "111937.705000", "111939.195000", "111940.685000", "111942.175000", "111943.665000", "111945.155000", "111946.645000", "111948.135000", "111949.625000", "111951.115000", "111952.605000", "111954.095000", "111955.585000", "111957.075000", "111958.565000", "112000.055000", "112001.545000", "112003.035000", "112004.525000", "112006.015000", "112007.505000", "112008.995000", "112010.485000", "112011.975000", "112013.465000", "112014.955000", "112016.445000", "112017.935000", "112019.425000", "112020.915000", "112022.405000", "112023.895000", "112025.385000", "112026.875000", "112028.365000", "112029.855000", "112031.345000", "112032.835000", "112034.325000", "112035.815000", "112037.305000", "112038.795000", "112040.285000", "112041.775000", "112043.265000", "112044.755000", "112046.245000", "112047.735000", "112049.225000", "112050.715000", "112052.205000", "112053.695000", "112055.185000", "112056.675000", "112058.165000", "112059.655000", "112101.145000", "112102.635000", "112104.125000", "112105.615000", "112107.105000", "112108.595000", "112110.085000", "112111.575000", "112113.065000", "112114.555000", "112116.045000", "112117.535000", "112119.025000", "112120.515000", "112122.005000", "112123.495000", "112124.985000", "112126.475000", "112127.965000", "112129.455000", "112130.945000", "112132.435000", "112133.925000", "112135.415000", "112136.905000", "112138.395000", "112139.885000", "112141.375000", "112142.865000", "112144.355000", "112145.845000", "112147.335000", "112148.825000", "112150.315000", "112151.805000", "112153.295000", "112154.785000", "112156.275000", "112157.765000", "112159.255000", "112200.745000", "112202.235000", "112203.725000", "112205.215000", "112206.705000", "112208.195000", "112209.685000", "112211.175000", "112212.665000", "112214.155000", "112215.645000", "112217.135000", "112218.625000", "112220.115000", "112221.605000", "112223.095000", "112224.585000", "112226.075000", "112227.565000", "112229.055000", "112230.545000", "112232.035000", "112233.525000", "112235.015000", "112236.505000", "112237.995000", "112239.485000", "112240.975000", "112242.465000", "112243.955000", "112245.445000", "112246.935000", "112248.425000", "112249.915000", "112251.405000", "112252.895000", "112254.385000", "112255.875000", "112257.365000", "112258.855000", "112300.345000", "112301.835000", "112303.325000", "112304.815000", "112306.305000", "112307.795000", "112309.285000", "112310.775000", "112312.265000", "112313.755000", "112315.245000", "112316.735000", "112318.225000", "112319.715000", "112321.205000", "112322.695000", "112324.185000", "112325.675000", "112327.165000", "112328.655000", "112330.145000", "112331.635000", "112333.125000", "112334.615000", "112336.105000", "112337.595000", "112339.085000", "112340.575000", "112342.065000", "112343.555000", "112345.045000", "112346.535000", "112348.025000", "112349.515000", "112351.005000", "112352.495000", "112353.985000", "112355.475000", "112356.965000", "112358.455000", "112359.945000", "112401.435000", "112402.925000", "112404.415000", "112405.905000", "112407.395000", "112408.885000", "112410.375000", "112411.865000", "112413.355000", "112414.845000", "112416.335000", "112417.825000", "112419.315000", "112420.805000", "112422.295000", "112423.785000", "112425.275000", "112426.765000", "112428.255000", "112429.745000", "112431.235000", "112432.725000", "112434.215000", "112435.705000", "112437.195000", "112438.685000", "112440.175000", "112441.665000", "112443.155000", "112444.645000", "112446.135000", "112447.625000", "112449.115000", "112450.605000", "112452.095000", "112453.585000", "112455.075000", "112456.565000", "112458.055000", "112459.545000", "112501.035000", "112502.525000", "112504.015000", "112505.505000", "112506.995000", "112508.485000", "112509.975000", "112511.465000", "112512.955000", "112514.445000", "112515.935000", "112517.425000", "112518.915000", "112520.405000", "112521.895000", "112523.385000", "112524.875000", "112526.365000", "112527.855000", "112529.345000", "112530.835000", "112532.325000", "112533.815000", "112535.305000", "112536.795000", "112538.285000", "112539.775000", "112541.265000", "112542.755000", "112544.245000", "112545.735000", "112547.225000", "112548.715000", "112550.205000", "112551.695000", "112553.185000", "112554.675000", "112556.165000", "112557.655000", "112559.145000", "112600.635000", "112602.125000", "112603.615000", "112605.105000", "112606.595000", "112608.085000", "112609.575000", "112611.065000", "112612.555000", "112614.045000", "112615.535000", "112617.025000", "112618.515000", "112620.005000", "112621.495000", "112622.985000", "112624.475000", "112625.965000", "112627.455000", "112628.945000", "112630.435000", "112631.925000", "112633.415000", "112634.905000", "112636.395000", "112637.885000", "112639.375000", "112640.865000", "112642.355000", "112643.845000", "112645.335000", "112646.825000", "112648.315000", "112649.805000", "112651.295000", "112652.785000", "112654.275000", "112655.765000", "112657.255000", "112658.745000", "112700.235000", "112701.725000", "112703.215000", "112704.705000", "112706.195000", "112707.685000", "112709.175000", "112710.665000", "112712.155000", "112713.645000", "112715.135000", "112716.625000", "112718.115000", "112719.605000", "112721.095000", "112722.585000", "112724.075000", "112725.565000", "112727.055000", "112728.545000", "112730.035000", "112731.525000", "112733.015000", "112734.505000", "112735.995000", "112737.485000", "112738.975000", "112740.465000", "112741.955000", "112743.445000", "112744.935000", "112746.425000", "112747.915000", "112749.405000", "112750.895000"],
      "ContentTime": ["111746.136000", "111746.140000", "111746.149000", "111746.152000", "111746.160000", "111746.163000", "111746.166000", "111746.169000", "111746.172000", "111746.175000", "111746.178000", "111746.181000", "111746.190000", "111746.193000", "111746.196000", "111746.198000", "111746.202000", "111746.205000", "111746.208000", "111746.211000", "111746.219000", "111746.222000", "111746.225000", "111746.228000", "111746.231000", "111806.101000", "111806.104000", "111806.107000", "111806.110000", "111806.113000", "111806.116000", "111806.119000", "111806.122000", "111806.125000", "111806.133000", "111806.136000", "111806.139000", "111806.142000", "111806.145000", "111806.148000", "111806.151000", "111806.154000", "111806.157000", "111806.160000", "111806.163000", "111826.100000", "111826.110000", "111826.113000", "111826.116000", "111826.119000", "111826.122000", "111826.125000", "111826.128000", "111826.131000", "111826.134000", "111826.137000", "111826.140000", "111826.143000", "111826.146000", "111826.149000", "111826.152000", "111826.155000", "111826.158000", "111826.162000", "111826.165000", "111846.101000", "111846.104000", "111846.107000", "111846.110000", "111846.113000", "111846.116000", "111846.119000", "111846.122000", "111846.125000", "111846.128000", "111846.131000", "111846.134000", "111846.137000", "111846.140000", "111846.143000", "111846.146000", "111846.149000", "111846.152000", "111846.155000", "111846.158000", "111846.161000", "111906.101000", "111906.104000", "111906.107000", "111906.110000", "111906.113000", "111906.116000", "111906.119000", "111906.122000", "111906.125000", "111906.128000", "111906.131000", "111906.134000", "111906.137000", "111906.140000", "111906.143000", "111906.146000", "111906.149000", "111906.152000", "111906.155000", "111906.159000", "111946.101000", "111946.104000", "111946.107000", "111946.110000", "111946.113000", "111946.116000", "111946.119000", "111946.122000", "111946.125000", "111946.128000", "111946.131000", "111946.134000", "111946.137000", "111946.140000", "111946.143000", "111946.147000", "111946.149000", "111946.152000", "111946.155000", "111946.158000", "111946.161000", "111946.164000", "111946.167000", "111946.170000", "111946.173000", "111946.176000", "111946.179000", "111946.184000", "112026.101000", "112026.104000", "112026.107000", "112026.110000", "112026.113000", "112026.116000", "112026.119000", "112026.122000", "112026.125000", "112026.128000", "112026.131000", "112026.134000", "112026.137000", "112026.140000", "112026.143000", "112026.146000", "112026.149000", "112026.153000", "112026.155000", "112026.158000", "112026.161000", "112026.165000", "112026.168000", "112026.171000", "112026.174000", "112026.177000", "112026.180000", "112106.101000", "112106.104000", "112106.118000", "112106.121000", "112106.124000", "112106.127000", "112106.130000", "112106.133000", "112106.151000", "112106.154000", "112106.163000", "112106.166000", "112106.170000", "112106.174000", "112106.178000", "112106.181000", "112106.184000", "112106.187000", "112106.190000", "112106.193000", "112106.196000", "112106.199000", "112106.202000", "112106.205000", "112106.208000", "112106.211000", "112146.101000", "112146.104000", "112146.107000", "112146.110000", "112146.113000", "112146.116000", "112146.119000", "112146.122000", "112146.125000", "112146.128000", "112146.132000", "112146.135000", "112146.137000", "112146.140000", "112146.144000", "112146.146000", "112146.149000", "112146.152000", "112146.156000", "112146.159000", "112146.162000", "112146.165000", "112146.168000", "112146.171000", "112146.174000", "112146.177000", "112146.180000", "112226.101000", "112226.104000", "112226.107000", "112226.110000", "112226.113000", "112226.117000", "112226.119000", "112226.123000", "112226.126000", "112226.129000", "112226.132000", "112226.135000", "112226.138000", "112226.141000", "112226.144000", "112226.147000", "112226.150000", "112226.153000", "112226.156000", "112226.159000", "112226.162000", "112226.165000", "112226.168000", "112226.171000", "112226.174000", "112226.177000", "112226.180000", "112306.100000", "112306.103000", "112306.106000", "112306.109000", "112306.112000", "112306.115000", "112306.118000", "112306.121000", "112306.125000", "112306.128000", "112306.131000", "112306.134000", "112306.137000", "112306.140000", "112306.143000", "112306.146000", "112306.149000", "112306.152000", "112306.155000", "112306.158000", "112306.161000", "112306.164000", "112306.167000", "112306.170000", "112306.173000", "112306.176000", "112306.179000", "112346.101000", "112346.104000", "112346.107000", "112346.110000", "112346.113000", "112346.116000", "112346.120000", "112346.123000", "112346.126000", "112346.129000", "112346.132000", "112346.135000", "112346.138000", "112346.141000", "112346.144000", "112346.147000", "112346.150000", "112346.153000", "112346.156000", "112346.159000", "112346.162000", "112346.165000", "112346.168000", "112346.171000", "112346.174000", "112346.177000", "112346.180000", "112426.101000", "112426.104000", "112426.107000", "112426.110000", "112426.113000", "112426.116000", "112426.120000", "112426.123000", "112426.125000", "112426.128000", "112426.132000", "112426.135000", "112426.138000", "112426.141000", "112426.144000", "112426.147000", "112426.150000", "112426.153000", "112426.156000", "112426.159000", "112426.162000", "112426.165000", "112426.168000", "112426.171000", "112426.174000", "112426.177000", "112426.180000", "112506.101000", "112506.105000", "112506.108000", "112506.110000", "112506.114000", "112506.117000", "112506.120000", "112506.123000", "112506.126000", "112506.129000", "112506.132000", "112506.135000", "112506.138000", "112506.141000", "112506.144000", "112506.147000", "112506.150000", "112506.153000", "112506.156000", "112506.159000", "112506.162000", "112506.165000", "112506.168000", "112506.171000", "112506.174000", "112506.177000", "112506.180000", "112546.101000", "112546.104000", "112546.107000", "112546.121000", "112546.124000", "112546.127000", "112546.130000", "112546.133000", "112546.136000", "112546.139000", "112546.142000", "112546.145000", "112546.148000", "112546.151000", "112546.154000", "112546.157000", "112546.161000", "112546.164000", "112546.168000", "112546.171000", "112546.174000", "112546.177000", "112546.180000", "112546.183000", "112546.186000", "112546.189000", "112626.101000", "112626.104000", "112626.108000", "112626.111000", "112626.114000", "112626.117000", "112626.120000", "112626.123000", "112626.126000", "112626.129000", "112626.132000", "112626.135000", "112626.138000", "112626.141000", "112626.144000", "112626.147000", "112626.150000", "112626.153000", "112626.156000", "112626.159000", "112626.162000", "112626.174000", "112626.178000", "112626.181000", "112626.184000", "112626.187000", "112626.190000", "112706.101000", "112706.104000", "112706.107000", "112706.111000", "112706.114000", "112706.117000", "112706.120000", "112706.123000", "112706.126000", "112706.129000", "112706.132000", "112706.135000", "112706.138000", "112706.141000", "112706.144000", "112706.147000", "112706.150000", "112706.153000", "112706.156000", "112706.159000", "112706.162000", "112706.165000", "112706.168000", "112706.171000", "112706.174000", "112706.178000", "112706.181000", "112746.100000", "112746.103000", "112746.106000", "112746.109000", "112746.113000", "112746.116000", "112746.119000", "112746.122000", "112746.125000", "112746.128000", "112746.131000", "112746.134000", "112746.137000", "112746.140000", "112746.143000", "112746.146000", "112746.149000", "112746.152000", "112746.155000", "112746.158000", "112746.161000", "112746.164000", "112746.167000", "112746.170000", "112746.174000", "112746.177000", "112746.179000", "112753.164000", "112753.167000", "112753.170000", "112753.173000", "112753.176000"],
