{
  "AcquisitionMatrixPE": 104,
  "AcquisitionNumber": 1,
  "AcquisitionTime": "11:29:30.690000",
  "BandwidthPerPixelPhaseEncode": 17.17,
  "BaseResolution": 104,
  "BodyPartExamined": "BRAIN",
  "CoilString": "HC1-7;NC1_2",
  "ConsistencyInfo": "N4_VE11C_LATEST_20160120",
  "ConversionSoftware": "dcm2niix",
  "ConversionSoftwareVersion": "v1.0.20190902",
  "DerivedVendorReportedEchoSpacing": 0.000560011,
  "DeviceSerialNumber": "167006",
  "DwellTime": 2.1e-06,
  "EchoTime": 0.037,
  "EchoTrainLength": 104,
  "EffectiveEchoSpacing": 0.000560011,
  "FlipAngle": 52,
  "ImageComments": "Unaliased_MB4_PE3_LB",
  "ImageOrientationPatientDICOM": [0.999448, 0.00658743, 0.0325533, 0.0113388, 0.853572, -0.520851],
  "ImageType": [
    "ORIGINAL",
    "PRIMARY",
    "M",
    "MB",
    "ND",
    "MOSAIC"
],
  "ImagingFrequency": 123.259,
  "InPlanePhaseEncodingDirectionDICOM": "COL",
  "InstitutionAddress": "Chemin_Queen-Mary_4565_Montreal_District_CA_H3W_1W5",
  "InstitutionName": "IUGM",
  "InstitutionalDepartmentName": "Department",
  "MRAcquisitionType": "2D",
  "MagneticFieldStrength": 3,
  "Manufacturer": "Siemens",
  "ManufacturersModelName": "Prisma_fit",
  "Modality": "MR",
  "MultibandAccelerationFactor": 4,
  "PartialFourier": 1,
  "PatientPosition": "HFS",
  "PercentPhaseFOV": 100,
  "PhaseEncodingDirection": "j",
  "PhaseEncodingSteps": 104,
  "PhaseResolution": 1,
  "PixelBandwidth": 2290,
  "ProcedureStepDescription": "games_shinobi",
  "ProtocolName": "func_task-shinobi_run-2",
  "PulseSequenceDetails": "%CustomerSeq%_cmrr_mbep2d_bold",
  "ReceiveCoilActiveElements": "HC1-7;NC1,2",
  "ReceiveCoilName": "HeadNeck_64",
  "ReconMatrixPE": 104,
  "RepetitionTime": 1.49,
  "SAR": 0.0337908,
  "ScanOptions": "FS",
  "ScanningSequence": "EP",
  "SequenceName": "epfid2d1_104",
  "SequenceVariant": "SK_SS",
  "SeriesDescription": "func_task-shinobi_run-2",
  "SeriesNumber": 13,
  "ShimSetting": [625, -7200, -8886, 360, -24, -190, 10, -22],
  "SliceThickness": 2,
  "SliceTiming": [0, 0.7825, 0.0975, 0.8825, 0.195, 0.98, 0.2925, 1.0775, 0.3925, 1.175, 0.49, 1.2725, 0.5875, 1.3725, 0.685, 0, 0.7825, 0.0975, 0.8825, 0.195, 0.98, 0.2925, 1.0775, 0.3925, 1.175, 0.49, 1.2725, 0.5875, 1.3725, 0.685, 0, 0.7825, 0.0975, 0.8825, 0.195, 0.98, 0.2925, 1.0775, 0.3925, 1.175, 0.49, 1.2725, 0.5875, 1.3725, 0.685, 0, 0.7825, 0.0975, 0.8825, 0.195, 0.98, 0.2925, 1.0775, 0.3925, 1.175, 0.49, 1.2725, 0.5875, 1.3725, 0.685],
  "SoftwareVersions": "syngo_MR_E11",
  "SpacingBetweenSlices": 2,
  "StationName": "MRC35049",
  "TaskName": "shinobi",
  "TotalReadoutTime": 0.0576811,
  "TxRefAmp": 245.156,
  "WipMemBlock": "f60c32c3-6cc5-402e-a68b-1dc71cab706a||Sequence: R016 ve11c/master r/e634e98; Dec 19 2017 11:00:25 by eja",
  "dcmmeta_affine": [
    [-1.998896598815918, 0.022677671164274216, 0.06243541091680527, 104.33401489257812],
    [-0.013174869120121002, 1.707144856452942, -1.0418651103973389, -49.25880432128906],
    [0.06510668247938156, 1.0417015552520752, 1.706053614616394, -100.60205078125],
    [0.0, 0.0, 0.0, 1.0]
],
  "dcmmeta_reorient_transform": [
    [0.0, -1.0, 0.0, 103.0],
    [1.0, 0.0, 0.0, 0.0],
    [0.0, 0.0, 1.0, 0.0],
    [0.0, 0.0, 0.0, 1.0]
],
  "dcmmeta_shape": [104, 104, 60, 407],
  "dcmmeta_slice_dim": 2,
  "dcmmeta_version": 0.6,
  "global": {
    "const": {
      "AcquisitionMatrix": [104, 0, 0, 104],
      "AngioFlag": "N",
      "BitsAllocated": 16,
      "BitsStored": 16,
      "BodyPartExamined": "BRAIN",
      "Columns": 832,
      "EchoNumbers": 1,
      "EchoTime": 37.0,
      "EchoTrainLength": 104,
      "FlipAngle": 52.0,
      "HighBit": 15,
      "ImageOrientationPatient": [0.99944829067512, 0.00658743464405, 0.0325533404031, 0.01133883549158, 0.85357243788567, -0.5208507695028],
      "ImagePositionPatient": [-842.52284150347, -752.77350497256, 362.17373551653],
      "ImageType": [
        "ORIGINAL",
        "PRIMARY",
        "M",
        "MB",
        "ND",
        "MOSAIC"
],
      "ImagedNucleus": "1H",
      "ImagingFrequency": 123.259062,
      "InPlanePhaseEncodingDirection": "COL",
      "MRAcquisitionType": "2D",
      "MagneticFieldStrength": 3.0,
      "Manufacturer": "SIEMENS",
      "ManufacturerModelName": "Prisma_fit",
      "Modality": "MR",
      "NumberOfAverages": 1.0,
      "NumberOfPhaseEncodingSteps": 104,
      "PercentPhaseFieldOfView": 100.0,
      "PercentSampling": 100.0,
      "PerformedProcedureStepStartTime": "104131.841000",
      "PhotometricInterpretation": "MONOCHROME2",
      "PixelBandwidth": 2290.0,
      "PixelRepresentation": 0,
      "PixelSpacing": [2.0, 2.0],
      "ProtocolName": "func_task-shinobi_run-2",
      "RepetitionTime": 1490.0,
      "Rows": 832,
      "SAR": 0.03379076388462,
      "SamplesPerPixel": 1,
      "ScanOptions": "FS",
      "ScanningSequence": "EP",
      "SequenceName": "epfid2d1_104",
      "SequenceVariant": [
        "SK",
        "SS"
],
      "SeriesDescription": "func_task-shinobi_run-2",
      "SeriesNumber": 13,
      "SeriesTime": "113100.915000",
      "SliceLocation": -56.898666056974,
      "SliceThickness": 2.0,
      "SmallestImagePixelValue": 0,
      "SoftwareVersions": "syngo MR E11",
      "SpacingBetweenSlices": 2.0000000028909,
      "SpecificCharacterSet": "ISO_IR 100",
      "StudyID": "1",
      "StudyTime": "104131.746000",
      "TransmitCoilName": "Body",
      "VariableFlipAngleFlag": "N",
      "WindowCenterWidthExplanation": "Algo1",
      "dBdt": 0.0},
    "slices": {}
  },
  "time": {
    "samples": {
      "AcquisitionNumber": [1, 2, 3, 4, 5, 6, 7, 8, 9, 10, 11, 12, 13, 14, 15, 16, 17, 18, 19, 20, 21, 22, 23, 24, 25, 26, 27, 28, 29, 30, 31, 32, 33, 34, 35, 36, 37, 38, 39, 40, 41, 42, 43, 44, 45, 46, 47, 48, 49, 50, 51, 52, 53, 54, 55, 56, 57, 58, 59, 60, 61, 62, 63, 64, 65, 66, 67, 68, 69, 70, 71, 72, 73, 74, 75, 76, 77, 78, 79, 80, 81, 82, 83, 84, 85, 86, 87, 88, 89, 90, 91, 92, 93, 94, 95, 96, 97, 98, 99, 100, 101, 102, 103, 104, 105, 106, 107, 108, 109, 110, 111, 112, 113, 114, 115, 116, 117, 118, 119, 120, 121, 122, 123, 124, 125, 126, 127, 128, 129, 130, 131, 132, 133, 134, 135, 136, 137, 138, 139, 140, 141, 142, 143, 144, 145, 146, 147, 148, 149, 150, 151, 152, 153, 154, 155, 156, 157, 158, 159, 160, 161, 162, 163, 164, 165, 166, 167, 168, 169, 170, 171, 172, 173, 174, 175, 176, 177, 178, 179, 180, 181, 182, 183, 184, 185, 186, 187, 188, 189, 190, 191, 192, 193, 194, 195, 196, 197, 198, 199, 200, 201, 202, 203, 204, 205, 206, 207, 208, 209, 210, 211, 212, 213, 214, 215, 216, 217, 218, 219, 220, 221, 222, 223, 224, 225, 226, 227, 228, 229, 230, 231, 232, 233, 234, 235, 236, 237, 238, 239, 240, 241, 242, 243, 244, 245, 246, 247, 248, 249, 250, 251, 252, 253, 254, 255, 256, 257, 258, 259, 260, 261, 262, 263, 264, 265, 266, 267, 268, 269, 270, 271, 272, 273, 274, 275, 276, 277, 278, 279, 280, 281, 282, 283, 284, 285, 286, 287, 288, 289, 290, 291, 292, 293, 294, 295, 296, 297, 298, 299, 300, 301, 302, 303, 304, 305, 306, 307, 308, 309, 310, 311, 312, 313, 314, 315, 316, 317, 318, 319, 320, 321, 322, 323, 324, 325, 326, 327, 328, 329, 330, 331, 332, 333, 334, 335, 336, 337, 338, 339, 340, 341, 342, 343, 344, 345, 346, 347, 348, 349, 350, 351, 352, 353, 354, 355, 356, 357, 358, 359, 360, 361, 362, 363, 364, 365, 366, 367, 368, 369, 370, 371, 372, 373, 374, 375, 376, 377, 378, 379, 380, 381, 382, 383, 384, 385, 386, 387, 388, 389, 390, 391, 392, 393, 394, 395, 396, 397, 398, 399, 400, 401, 402, 403, 404, 405, 406, 407],
      "AcquisitionTime": ["112930.690000", "112932.180000", "112933.670000", "112935.160000", "112936.650000", "112938.140000", "112939.630000", "112941.120000", "112942.610000", "112944.100000", "112945.590000", "112947.080000", "112948.570000", "112950.060000", "112951.550000", "112953.040000", "112954.530000", "112956.020000", "112957.510000", "112959.000000", "113000.490000", "113001.980000", "113003.470000", "113004.960000", "113006.450000", "113007.940000", "113009.430000", "113010.920000", "113012.410000", "113013.900000", "113015.390000", "113016.880000", "113018.370000", "113019.860000", "113021.350000", "113022.840000", "113024.330000", "113025.820000", "113027.310000", "113028.800000", "113030.290000", "113031.780000", "113033.270000", "113034.760000", "113036.250000", "113037.740000", "113039.230000", "113040.720000", "113042.210000", "113043.700000", "113045.190000", "113046.680000", "113048.170000", "113049.660000", "113051.150000", "113052.640000", "113054.130000", "113055.620000", "113057.110000", "113058.600000", "113100.090000", "113101.580000", "113103.070000", "113104.560000", "113106.050000", "113107.540000", "113109.030000", "113110.520000", "113112.010000", "113113.500000", "113114.990000", "113116.480000", "113117.970000", "113119.460000", "113120.950000", "113122.440000", "113123.930000", "113125.420000", "113126.910000", "113128.400000", "113129.890000", "113131.380000", "113132.870000", "113134.360000", "113135.850000", "113137.340000", "113138.830000", "113140.320000", "113141.810000", "113143.300000", "113144.790000", "113146.280000", "113147.770000", "113149.260000", "113150.750000", "113152.240000", "113153.730000", "113155.220000", "113156.710000", "113158.200000", "113159.690000", "113201.180000", "113202.670000", "113204.160000", "113205.650000", "113207.140000", "113208.630000", "113210.120000", "113211.610000", "113213.100000", "113214.590000", "113216.080000", "113217.570000", "113219.060000", "113220.550000", "113222.040000", "113223.530000", "113225.020000", "113226.510000", "113228.000000", "113229.490000", "113230.980000", "113232.470000", "113233.960000", "113235.450000", "113236.940000", "113238.430000", "113239.920000", "113241.410000", "113242.900000", "113244.390000", "113245.880000", "113247.370000", "113248.860000", "113250.350000", "113251.840000", "113253.330000", "113254.820000", "113256.310000", "113257.800000", "113259.290000", "113300.780000", "113302.270000", "113303.760000", "113305.250000", "113306.740000", "113308.230000", "113309.720000", "113311.210000", "113312.700000", "113314.190000", "113315.680000", "113317.170000", "113318.660000", "113320.150000", "113321.640000", "113323.130000", "113324.620000", "113326.110000", "113327.600000", "113329.090000", "113330.580000", "113332.070000", "113333.560000", "113335.050000", "113336.540000", "113338.030000", "113339.520000", "113341.010000", "113342.500000", "113343.990000", "113345.480000", "113346.970000", "113348.460000", "113349.950000", "113351.440000", "113352.930000", "113354.420000", "113355.910000", "113357.400000", "113358.890000", "113400.380000", "113401.870000", "113403.360000", "113404.850000", "113406.340000", "113407.830000", "113409.320000", "113410.810000", "113412.300000", "113413.790000", "113415.280000", "113416.770000", "113418.260000", "113419.750000", "113421.240000", "113422.730000", "113424.220000", "113425.710000", "113427.200000", "113428.690000", "113430.180000", "113431.670000", "113433.160000", "113434.650000", "113436.140000", "113437.630000", "113439.120000", "113440.610000", "113442.100000", "113443.590000", "113445.080000", "113446.570000", "113448.060000", "113449.550000", "113451.040000", "113452.530000", "113454.020000", "113455.510000", "113457.000000", "113458.490000", "113459.980000", "113501.470000", "113502.960000", "113504.450000", "113505.940000", "113507.430000", "113508.920000", "113510.410000", "113511.900000", "113513.390000", "113514.880000", "113516.370000", "113517.860000", "113519.350000", "113520.840000", "113522.330000", "113523.820000", "113525.310000", "113526.800000", "113528.290000", "113529.780000", "113531.270000", "113532.760000", "113534.250000", "113535.740000", "113537.230000", "113538.720000", "113540.210000", "113541.700000", "113543.190000", "113544.680000", "113546.170000", "113547.660000", "113549.150000", "113550.640000", "113552.130000", "113553.620000", "113555.110000", "113556.600000", "113558.090000", "113559.580000", "113601.070000", "113602.560000", "113604.050000", "113605.540000", "113607.030000", "113608.520000", "113610.010000", "113611.500000", "113612.990000", "113614.480000", "113615.970000", "113617.460000", "113618.950000", "113620.440000", "113621.930000", "113623.420000", "113624.910000", "113626.400000", "113627.890000", "113629.380000", "113630.870000", "113632.360000", "113633.850000", "113635.340000", "113636.830000", "113638.320000", "113639.810000", "113641.300000", "113642.790000", "113644.280000", "113645.770000", "113647.260000", "113648.750000", "113650.240000", "113651.730000", "113653.220000", "113654.710000", "113656.200000", "113657.690000", "113659.180000", "113700.670000", "113702.160000", "113703.650000", "113705.140000", "113706.630000", "113708.120000", "113709.610000", "113711.100000", "113712.590000", "113714.080000", "113715.570000", "113717.060000", "113718.550000", "113720.040000", "113721.530000", "113723.020000", "113724.510000", "113726.000000", "113727.490000", "113728.980000", "113730.470000", "113731.960000", "113733.450000", "113734.940000", "113736.430000", "113737.920000", "113739.410000", "113740.900000", "113742.390000", "113743.880000", "113745.370000", "113746.860000", "113748.350000", "113749.840000", "113751.330000", "113752.820000", "113754.310000", "113755.800000", "113757.290000", "113758.780000", "113800.270000", "113801.760000", "113803.250000", "113804.740000", "113806.230000", "113807.720000", "113809.210000", "113810.700000", "113812.190000", "113813.680000", "113815.170000", "113816.660000", "113818.150000", "113819.640000", "113821.130000", "113822.620000", "113824.110000", "113825.600000", "113827.090000", "113828.580000", "113830.070000", "113831.560000", "113833.050000", "113834.540000", "113836.030000", "113837.520000", "113839.010000", "113840.500000", "113841.990000", "113843.480000", "113844.970000", "113846.460000", "113847.950000", "113849.440000", "113850.930000", "113852.420000", "113853.910000", "113855.400000", "113856.890000", "113858.380000", "113859.870000", "113901.360000", "113902.850000", "113904.340000", "113905.830000", "113907.320000", "113908.810000", "113910.300000", "113911.790000", "113913.280000", "113914.770000", "113916.260000", "113917.750000", "113919.240000", "113920.730000", "113922.220000", "113923.710000", "113925.200000", "113926.690000", "113928.180000", "113929.670000", "113931.160000", "113932.650000", "113934.140000", "113935.630000"],
      "ContentTime": ["113100.917000", "113100.928000", "113100.931000", "113100.934000", "113100.937000", "113100.940000", "113100.943000", "113100.946000", "113100.949000", "113100.953000", "113100.956000", "113100.959000", "113100.962000", "113100.965000", "113100.968000", "113100.971000", "113100.974000", "113100.977000", "113100.980000", "113100.983000", "113100.986000", "113100.989000", "113100.992000", "113100.995000", "113100.998000", "113101.003000", "113101.006000", "113101.009000", "113101.012000", "113101.015000", "113101.027000", "113101.030000", "113101.033000", "113101.036000", "113101.039000", "113101.042000", "113120.880000", "113120.883000", "113120.886000", "113120.889000", "113120.893000", "113120.900000", "113120.903000", "113120.906000", "113120.909000", "113120.912000", "113120.915000", "113120.918000", "113120.921000", "113120.924000", "113120.927000", "113120.938000", "113120.942000", "113120.945000", "113120.948000", "113120.951000", "113140.880000", "113140.883000", "113140.886000", "113140.889000", "113140.892000", "113140.895000", "113140.899000", "113140.902000", "113140.905000", "113140.908000", "113140.911000", "113140.914000", "113140.917000", "113140.920000", "113140.923000", "113140.926000", "113140.929000", "113140.932000", "113140.935000", "113140.938000", "113140.941000", "113200.879000", "113200.882000", "113200.885000", "113200.888000", "113200.891000", "113200.894000", "113200.897000", "113200.900000", "113200.903000", "113200.907000", "113200.909000", "113200.912000", "113200.915000", "113200.919000", "113200.922000", "113200.925000", "113200.928000", "113200.931000", "113200.934000", "113200.937000", "113240.879000", "113240.882000", "113240.885000", "113240.888000", "113240.891000", "113240.895000", "113240.898000", "113240.901000", "113240.904000", "113240.907000", "113240.910000", "113240.913000", "113240.916000", "113240.919000", "113240.922000", "113240.925000", "113240.928000", "113240.931000", "113240.934000", "113240.937000", "113240.940000", "113240.943000", "113240.946000", "113240.949000", "113240.962000", "113240.965000", "113240.968000", "113240.971000", "113240.974000", "113240.977000", "113320.880000", "113320.883000", "113320.887000", "113320.890000", "113320.893000", "113320.896000", "113320.899000", "113320.902000", "113320.905000", "113320.908000", "113320.911000", "113320.914000", "113320.917000", "113320.920000", "113320.923000", "113320.926000", "113320.929000", "113320.932000", "113320.935000", "113320.938000", "113320.941000", "113320.944000", "113320.947000", "113320.950000", "113320.953000", "113320.956000", "113320.959000", "113400.880000", "113400.883000", "113400.886000", "113400.889000", "113400.892000", "113400.895000", "113400.898000", "113400.901000", "113400.905000", "113400.908000", "113400.911000", "113400.914000", "113400.917000", "113400.920000", "113400.923000", "113400.926000", "113400.929000", "113400.932000", "113400.935000", "113400.938000", "113400.941000", "113400.944000", "113400.947000", "113400.950000", "113400.953000", "113400.956000", "113400.959000", "113440.879000", "113440.883000", "113440.887000", "113440.890000", "113440.893000", "113440.896000", "113440.899000", "113440.902000", "113440.905000", "113440.908000", "113440.911000", "113440.914000", "113440.917000", "113440.920000", "113440.923000", "113440.926000", "113440.929000", "113440.932000", "113440.935000", "113440.938000", "113440.941000", "113440.945000", "113440.948000", "113440.951000", "113440.954000", "113440.957000", "113520.879000", "113520.882000", "113520.885000", "113520.888000", "113520.891000", "113520.895000", "113520.898000", "113520.901000", "113520.913000", "113520.916000", "113520.919000", "113520.922000", "113520.925000", "113520.928000", "113520.931000", "113520.934000", "113520.937000", "113520.941000", "113520.944000", "113520.947000", "113520.950000", "113520.953000", "113520.956000", "113520.959000", "113520.962000", "113520.965000", "113520.968000", "113600.880000", "113600.883000", "113600.886000", "113600.889000", "113600.893000", "113600.896000", "113600.899000", "113600.902000", "113600.905000", "113600.908000", "113600.911000", "113600.914000", "113600.917000", "113600.932000", "113600.935000", "113600.943000", "113600.946000", "113600.949000", "113600.952000", "113600.955000", "113600.958000", "113600.961000", "113600.964000", "113600.967000", "113600.970000", "113600.973000", "113600.976000", "113640.879000", "113640.882000", "113640.885000", "113640.888000", "113640.891000", "113640.894000", "113640.897000", "113640.901000", "113640.904000", "113640.907000", "113640.910000", "113640.923000", "113640.926000", "113640.929000", "113640.932000", "113640.935000", "113640.938000", "113640.941000", "113640.944000", "113640.947000", "113640.950000", "113640.953000", "113640.956000", "113640.959000", "113640.962000", "113640.965000", "113640.968000", "113720.879000", "113720.882000", "113720.886000", "113720.888000", "113720.891000", "113720.894000", "113720.898000", "113720.901000", "113720.904000", "113720.907000", "113720.910000", "113720.913000", "113720.916000", "113720.919000", "113720.922000", "113720.925000", "113720.928000", "113720.931000", "113720.934000", "113720.937000", "113720.940000", "113720.943000", "113720.946000", "113720.949000", "113720.952000", "113720.955000", "113720.958000", "113800.880000", "113800.883000", "113800.886000", "113800.889000", "113800.893000", "113800.896000", "113800.899000", "113800.902000", "113800.905000", "113800.920000", "113800.923000", "113800.926000", "113800.929000", "113800.932000", "113800.935000", "113800.938000", "113800.941000", "113800.944000", "113800.947000", "113800.950000", "113800.953000", "113800.956000", "113800.959000", "113800.962000", "113800.965000", "113800.968000", "113800.971000", "113840.879000", "113840.882000", "113840.886000", "113840.889000", "113840.892000", "113840.895000", "113840.898000", "113840.902000", "113840.905000", "113840.908000", "113840.912000", "113840.915000", "113840.918000", "113840.921000", "113840.924000", "113840.927000", "113840.930000", "113840.933000", "113840.936000", "113840.939000", "113840.942000", "113840.945000", "113840.948000", "113840.951000", "113840.955000", "113840.958000", "113920.879000", "113920.882000", "113920.885000", "113920.888000", "113920.892000", "113920.895000", "113920.898000", "113920.901000", "113920.904000", "113920.907000", "113920.910000", "113920.913000", "113920.916000", "113920.919000", "113920.922000", "113920.925000", "113920.928000", "113920.931000", "113920.934000", "113920.937000", "113920.940000", "113920.943000", "113920.946000", "113920.950000", "113920.953000", "113920.956000", "113920.959000", "113938.240000", "113938.243000", "113938.246000", "113938.249000", "113938.252000", "113938.255000", "113938.261000", "113938.264000", "113938.267000", "113938.270000", "113938.273000", "113938.276000"],
      "InstanceCreationTime": ["113100.917000", "113100.928000", "113100.931000", "113100.934000", "113100.937000", "113100.940000", "113100.943000", "113100.946000", "113100.949000", "113100.953000", "113100.956000", "113100.959000", "113100.962000", "113100.965000", "113100.968000", "113100.971000", "113100.974000", "113100.977000", "113100.980000", "113100.983000", "113100.986000", "113100.989000", "113100.992000", "113100.995000", "113100.998000", "113101.003000", "113101.006000", "113101.009000", "113101.012000", "113101.015000", "113101.027000", "113101.030000", "113101.033000", "113101.036000", "113101.039000", "113101.042000", "113120.880000", "113120.883000", "113120.886000", "113120.889000", "113120.893000", "113120.900000", "113120.903000", "113120.906000", "113120.909000", "113120.912000", "113120.915000", "113120.918000", "113120.921000", "113120.924000", "113120.927000", "113120.938000", "113120.942000", "113120.945000", "113120.948000", "113120.951000", "113140.880000", "113140.883000", "113140.886000", "113140.889000", "113140.892000", "113140.895000", "113140.899000", "113140.902000", "113140.905000", "113140.908000", "113140.911000", "113140.914000", "113140.917000", "113140.920000", "113140.923000", "113140.926000", "113140.929000", "113140.932000", "113140.935000", "113140.938000", "113140.941000", "113200.879000", "113200.882000", "113200.885000", "113200.888000", "113200.891000", "113200.894000", "113200.897000", "113200.900000", "113200.903000", "113200.907000", "113200.909000", "113200.912000", "113200.915000", "113200.919000", "113200.922000", "113200.925000", "113200.928000", "113200.931000", "113200.934000", "113200.937000", "113240.879000", "113240.882000", "113240.885000", "113240.888000", "113240.891000", "113240.895000", "113240.898000", "113240.901000", "113240.904000", "113240.907000", "113240.910000", "113240.913000", "113240.916000", "113240.919000", "113240.922000", "113240.925000", "113240.928000", "113240.931000", "113240.934000", "113240.937000", "113240.940000", "113240.943000", "113240.946000", "113240.949000", "113240.962000", "113240.965000", "113240.968000", "113240.971000", "113240.974000", "113240.977000", "113320.880000", "113320.883000", "113320.887000", "113320.890000", "113320.893000", "113320.896000", "113320.899000", "113320.902000", "113320.905000", "113320.908000", "113320.911000", "113320.914000", "113320.917000", "113320.920000", "113320.923000", "113320.926000", "113320.929000", "113320.932000", "113320.935000", "113320.938000", "113320.941000", "113320.944000", "113320.947000", "113320.950000", "113320.953000", "113320.956000", "113320.959000", "113400.880000", "113400.883000", "113400.886000", "113400.889000", "113400.892000", "113400.895000", "113400.898000", "113400.901000", "113400.905000", "113400.908000", "113400.911000", "113400.914000", "113400.917000", "113400.920000", "113400.923000", "113400.926000", "113400.929000", "113400.932000", "113400.935000", "113400.938000", "113400.941000", "113400.944000", "113400.947000", "113400.950000", "113400.953000", "113400.956000", "113400.959000", "113440.879000", "113440.883000", "113440.887000", "113440.890000", "113440.893000", "113440.896000", "113440.899000", "113440.902000", "113440.905000", "113440.908000", "113440.911000", "113440.914000", "113440.917000", "113440.920000", "113440.923000", "113440.926000", "113440.929000", "113440.932000", "113440.935000", "113440.938000", "113440.941000", "113440.945000", "113440.948000", "113440.951000", "113440.954000", "113440.957000", "113520.879000", "113520.882000", "113520.885000", "113520.888000", "113520.891000", "113520.895000", "113520.898000", "113520.901000", "113520.913000", "113520.916000", "113520.919000", "113520.922000", "113520.925000", "113520.928000", "113520.931000", "113520.934000", "113520.937000", "113520.941000", "113520.944000", "113520.947000", "113520.950000", "113520.953000", "113520.956000", "113520.959000", "113520.962000", "113520.965000", "113520.968000", "113600.880000", "113600.883000", "113600.886000", "113600.889000", "113600.893000", "113600.896000", "113600.899000", "113600.902000", "113600.905000", "113600.908000", "113600.911000", "113600.914000", "113600.917000", "113600.932000", "113600.935000", "113600.943000", "113600.946000", "113600.949000", "113600.952000", "113600.955000", "113600.958000", "113600.961000", "113600.964000", "113600.967000", "113600.970000", "113600.973000", "113600.976000", "113640.879000", "113640.882000", "113640.885000", "113640.888000", "113640.891000", "113640.894000", "113640.897000", "113640.901000", "113640.904000", "113640.907000", "113640.910000", "113640.923000", "113640.926000", "113640.929000", "113640.932000", "113640.935000", "113640.938000", "113640.941000", "113640.944000", "113640.947000", "113640.950000", "113640.953000", "113640.956000", "113640.959000", "113640.962000", "113640.965000", "113640.968000", "113720.879000", "113720.882000", "113720.886000", "113720.888000", "113720.891000", "113720.894000", "113720.898000", "113720.901000", "113720.904000", "113720.907000", "113720.910000", "113720.913000", "113720.916000", "113720.919000", "113720.922000", "113720.925000", "113720.928000", "113720.931000", "113720.934000", "113720.937000", "113720.940000", "113720.943000", "113720.946000", "113720.949000", "113720.952000", "113720.955000", "113720.958000", "113800.880000", "113800.883000", "113800.886000", "113800.889000", "113800.893000", "113800.896000", "113800.899000", "113800.902000", "113800.905000", "113800.920000", "113800.923000", "113800.926000", "113800.929000", "113800.932000", "113800.935000", "113800.938000", "113800.941000", "113800.944000", "113800.947000", "113800.950000", "113800.953000", "113800.956000", "113800.959000", "113800.962000", "113800.965000", "113800.968000", "113800.971000", "113840.879000", "113840.882000", "113840.886000", "113840.889000", "113840.892000", "113840.895000", "113840.898000", "113840.902000", "113840.905000", "113840.908000", "113840.912000", "113840.915000", "113840.918000", "113840.921000", "113840.924000", "113840.927000", "113840.930000", "113840.933000", "113840.936000", "113840.939000", "113840.942000", "113840.945000", "113840.948000", "113840.951000", "113840.955000", "113840.958000", "113920.879000", "113920.882000", "113920.885000", "113920.888000", "113920.892000", "113920.895000", "113920.898000", "113920.901000", "113920.904000", "113920.907000", "113920.910000", "113920.913000", "113920.916000", "113920.919000", "113920.922000", "113920.925000", "113920.928000", "113920.931000", "113920.934000", "113920.937000", "113920.940000", "113920.943000", "113920.946000", "113920.950000", "113920.953000", "113920.956000", "113920.959000", "113938.240000", "113938.243000", "113938.246000", "113938.249000", "113938.252000", "113938.255000", "113938.261000", "113938.264000", "113938.267000", "113938.270000", "113938.273000", "113938.276000"],
