{
  "AcquisitionMatrixPE": 104,
  "AcquisitionNumber": 1,
  "AcquisitionTime": "10:41:10.097500",
  "BandwidthPerPixelPhaseEncode": 17.17,
  "BaseResolution": 104,
  "BodyPartExamined": "BRAIN",
  "CoilString": "HC1-7;NC1_2",
  "ConsistencyInfo": "N4_VE11C_LATEST_20160120",
  "ConversionSoftware": "dcm2niix",
  "ConversionSoftwareVersion": "v1.0.20190902",
  "DerivedVendorReportedEchoSpacing": 0.000560011,
  "DeviceSerialNumber": "167006",
  "DwellTime": 2.1e-06,
  "EchoTime": 0.037,
  "EchoTrainLength": 104,
  "EffectiveEchoSpacing": 0.000560011,
  "FlipAngle": 52,
  "ImageComments": "Unaliased_MB4_PE3_LB",
  "ImageOrientationPatientDICOM": [0.999673, 0.0184708, 0.017691, -0.00697916, 0.862451, -0.506092],
  "ImageType": [
    "ORIGINAL",
    "PRIMARY",
    "M",
    "MB",
    "ND",
    "MOSAIC"
],
  "ImagingFrequency": 123.259,
  "InPlanePhaseEncodingDirectionDICOM": "COL",
  "InstitutionAddress": "Chemin_Queen-Mary_4565_Montreal_District_CA_H3W_1W5",
  "InstitutionName": "IUGM",
  "InstitutionalDepartmentName": "Department",
  "MRAcquisitionType": "2D",
  "MagneticFieldStrength": 3,
  "Manufacturer": "Siemens",
  "ManufacturersModelName": "Prisma_fit",
  "Modality": "MR",
  "MultibandAccelerationFactor": 4,
  "PartialFourier": 1,
  "PatientPosition": "HFS",
  "PercentPhaseFOV": 100,
  "PhaseEncodingDirection": "j",
  "PhaseEncodingSteps": 104,
  "PhaseResolution": 1,
  "PixelBandwidth": 2290,
  "ProcedureStepDescription": "games_shinobi",
  "ProtocolName": "func_task-shinobi_run-1",
  "PulseSequenceDetails": "%CustomerSeq%_cmrr_mbep2d_bold",
  "ReceiveCoilActiveElements": "HC1-7;NC1,2",
  "ReceiveCoilName": "HeadNeck_64",
  "ReconMatrixPE": 104,
  "RepetitionTime": 1.49,
  "SAR": 0.0354432,
  "ScanOptions": "FS",
  "ScanningSequence": "EP",
  "SequenceName": "epfid2d1_104",
  "SequenceVariant": "SK_SS",
  "SeriesDescription": "func_task-shinobi_run-1",
  "SeriesNumber": 9,
  "ShimSetting": [630, -7210, -8878, 375, -5, -218, 16, -8],
  "SliceThickness": 2,
  "SliceTiming": [0, 0.7825, 0.0975, 0.8825, 0.195, 0.98, 0.2925, 1.0775, 0.3925, 1.175, 0.49, 1.2725, 0.5875, 1.3725, 0.685, 0, 0.7825, 0.0975, 0.8825, 0.195, 0.98, 0.2925, 1.0775, 0.3925, 1.175, 0.49, 1.2725, 0.5875, 1.3725, 0.685, 0, 0.7825, 0.0975, 0.8825, 0.195, 0.98, 0.2925, 1.0775, 0.3925, 1.175, 0.49, 1.2725, 0.5875, 1.3725, 0.685, 0, 0.7825, 0.0975, 0.8825, 0.195, 0.98, 0.2925, 1.0775, 0.3925, 1.175, 0.49, 1.2725, 0.5875, 1.3725, 0.685],
  "SoftwareVersions": "syngo_MR_E11",
  "SpacingBetweenSlices": 2,
  "StationName": "MRC35049",
  "TaskName": "shinobi",
  "TotalReadoutTime": 0.0576811,
  "TxRefAmp": 248.666,
  "WipMemBlock": "3c005bdf-cfd0-4a76-8d6a-0a68e196d3bc||Sequence: R016 ve11c/master r/e634e98; Dec 19 2017 11:00:25 by eja",
  "dcmmeta_affine": [
    [-1.9993457794189453, -0.013958312571048737, 0.04921100288629532, 106.81069946289062],
    [-0.03694150969386101, 1.724902868270874, -1.0116053819656372, -49.2667236328125],
    [0.035381950438022614, 1.012183427810669, 1.7245965003967285, -93.48573303222656],
    [0.0, 0.0, 0.0, 1.0]
],
  "dcmmeta_reorient_transform": [
    [0.0, -1.0, 0.0, 103.0],
    [1.0, 0.0, 0.0, 0.0],
    [0.0, 0.0, 1.0, 0.0],
    [0.0, 0.0, 0.0, 1.0]
],
  "dcmmeta_shape": [104, 104, 60, 483],
  "dcmmeta_slice_dim": 2,
  "dcmmeta_version": 0.6,
  "global": {
    "const": {
      "AcquisitionMatrix": [104, 0, 0, 104],
      "AngioFlag": "N",
      "BitsAllocated": 16,
      "BitsStored": 16,
      "BodyPartExamined": "BRAIN",
      "Columns": 832,
      "EchoNumbers": 1,
      "EchoTime": 37.0,
      "EchoTrainLength": 104,
      "FlipAngle": 52.0,
      "HighBit": 15,
      "ImageOrientationPatient": [0.99967287682321, 0.01847075446446, 0.01769097435203, -0.0069791562464, 0.86245143249593, -0.5060917090447],
      "ImagePositionPatient": [-828.05402092164, -769.70962344265, 366.32489039029],
      "ImageType": [
        "ORIGINAL",
        "PRIMARY",
        "M",
        "MB",
        "ND",
        "MOSAIC"
],
      "ImagedNucleus": "1H",
      "ImagingFrequency": 123.25904,
      "InPlanePhaseEncodingDirection": "COL",
      "MRAcquisitionType": "2D",
      "MagneticFieldStrength": 3.0,
      "Manufacturer": "SIEMENS",
      "ManufacturerModelName": "Prisma_fit",
      "Modality": "MR",
      "NumberOfAverages": 1.0,
      "NumberOfPhaseEncodingSteps": 104,
      "PercentPhaseFieldOfView": 100.0,
      "PercentSampling": 100.0,
      "PerformedProcedureStepStartTime": "103807.975000",
      "PhotometricInterpretation": "MONOCHROME2",
      "PixelBandwidth": 2290.0,
      "PixelRepresentation": 0,
      "PixelSpacing": [2.0, 2.0],
      "ProtocolName": "func_task-shinobi_run-1",
      "RepetitionTime": 1490.0,
      "Rows": 832,
      "SAR": 0.03544318390787,
      "SamplesPerPixel": 1,
      "ScanOptions": "FS",
      "ScanningSequence": "EP",
      "SequenceName": "epfid2d1_104",
      "SequenceVariant": [
        "SK",
        "SS"
],
      "SeriesDescription": "func_task-shinobi_run-1",
      "SeriesNumber": 9,
      "SeriesTime": "104257.582000",
      "SliceLocation": -53.065211648832,
      "SliceThickness": 2.0,
      "SmallestImagePixelValue": 0,
      "SoftwareVersions": "syngo MR E11",
      "SpacingBetweenSlices": 2.0000000302539,
      "SpecificCharacterSet": "ISO_IR 100",
      "StudyID": "1",
      "StudyTime": "103807.892000",
      "TransmitCoilName": "Body",
      "VariableFlipAngleFlag": "N",
      "WindowCenterWidthExplanation": "Algo1",
      "dBdt": 0.0},
    "slices": {}
  },
  "time": {
    "samples": {
      "AcquisitionNumber": [1, 2, 3, 4, 5, 6, 7, 8, 9, 10, 11, 12, 13, 14, 15, 16, 17, 18, 19, 20, 21, 22, 23, 24, 25, 26, 27, 28, 29, 30, 31, 32, 33, 34, 35, 36, 37, 38, 39, 40, 41, 42, 43, 44, 45, 46, 47, 48, 49, 50, 51, 52, 53, 54, 55, 56, 57, 58, 59, 60, 61, 62, 63, 64, 65, 66, 67, 68, 69, 70, 71, 72, 73, 74, 75, 76, 77, 78, 79, 80, 81, 82, 83, 84, 85, 86, 87, 88, 89, 90, 91, 92, 93, 94, 95, 96, 97, 98, 99, 100, 101, 102, 103, 104, 105, 106, 107, 108, 109, 110, 111, 112, 113, 114, 115, 116, 117, 118, 119, 120, 121, 122, 123, 124, 125, 126, 127, 128, 129, 130, 131, 132, 133, 134, 135, 136, 137, 138, 139, 140, 141, 142, 143, 144, 145, 146, 147, 148, 149, 150, 151, 152, 153, 154, 155, 156, 157, 158, 159, 160, 161, 162, 163, 164, 165, 166, 167, 168, 169, 170, 171, 172, 173, 174, 175, 176, 177, 178, 179, 180, 181, 182, 183, 184, 185, 186, 187, 188, 189, 190, 191, 192, 193, 194, 195, 196, 197, 198, 199, 200, 201, 202, 203, 204, 205, 206, 207, 208, 209, 210, 211, 212, 213, 214, 215, 216, 217, 218, 219, 220, 221, 222, 223, 224, 225, 226, 227, 228, 229, 230, 231, 232, 233, 234, 235, 236, 237, 238, 239, 240, 241, 242, 243, 244, 245, 246, 247, 248, 249, 250, 251, 252, 253, 254, 255, 256, 257, 258, 259, 260, 261, 262, 263, 264, 265, 266, 267, 268, 269, 270, 271, 272, 273, 274, 275, 276, 277, 278, 279, 280, 281, 282, 283, 284, 285, 286, 287, 288, 289, 290, 291, 292, 293, 294, 295, 296, 297, 298, 299, 300, 301, 302, 303, 304, 305, 306, 307, 308, 309, 310, 311, 312, 313, 314, 315, 316, 317, 318, 319, 320, 321, 322, 323, 324, 325, 326, 327, 328, 329, 330, 331, 332, 333, 334, 335, 336, 337, 338, 339, 340, 341, 342, 343, 344, 345, 346, 347, 348, 349, 350, 351, 352, 353, 354, 355, 356, 357, 358, 359, 360, 361, 362, 363, 364, 365, 366, 367, 368, 369, 370, 371, 372, 373, 374, 375, 376, 377, 378, 379, 380, 381, 382, 383, 384, 385, 386, 387, 388, 389, 390, 391, 392, 393, 394, 395, 396, 397, 398, 399, 400, 401, 402, 403, 404, 405, 406, 407, 408, 409, 410, 411, 412, 413, 414, 415, 416, 417, 418, 419, 420, 421, 422, 423, 424, 425, 426, 427, 428, 429, 430, 431, 432, 433, 434, 435, 436, 437, 438, 439, 440, 441, 442, 443, 444, 445, 446, 447, 448, 449, 450, 451, 452, 453, 454, 455, 456, 457, 458, 459, 460, 461, 462, 463, 464, 465, 466, 467, 468, 469, 470, 471, 472, 473, 474, 475, 476, 477, 478, 479, 480, 481, 482, 483],
      "AcquisitionTime": ["104110.097500", "104111.587500", "104113.077500", "104114.567500", "104116.057500", "104117.547500", "104119.037500", "104120.527500", "104122.017500", "104123.507500", "104124.997500", "104126.487500", "104127.977500", "104129.467500", "104130.957500", "104132.447500", "104133.937500", "104135.427500", "104136.917500", "104138.407500", "104139.897500", "104141.387500", "104142.877500", "104144.367500", "104145.857500", "104147.347500", "104148.837500", "104150.327500", "104151.817500", "104153.307500", "104154.797500", "104156.287500", "104157.777500", "104159.267500", "104200.757500", "104202.247500", "104203.737500", "104205.227500", "104206.717500", "104208.207500", "104209.697500", "104211.187500", "104212.677500", "104214.167500", "104215.657500", "104217.147500", "104218.637500", "104220.127500", "104221.617500", "104223.107500", "104224.597500", "104226.087500", "104227.577500", "104229.067500", "104230.557500", "104232.047500", "104233.537500", "104235.027500", "104236.517500", "104238.007500", "104239.497500", "104240.987500", "104242.477500", "104243.967500", "104245.457500", "104246.947500", "104248.437500", "104249.927500", "104251.417500", "104252.907500", "104254.397500", "104255.887500", "104257.377500", "104258.867500", "104300.357500", "104301.847500", "104303.337500", "104304.827500", "104306.317500", "104307.807500", "104309.297500", "104310.787500", "104312.277500", "104313.767500", "104315.257500", "104316.747500", "104318.237500", "104319.727500", "104321.217500", "104322.707500", "104324.197500", "104325.687500", "104327.177500", "104328.667500", "104330.157500", "104331.647500", "104333.137500", "104334.627500", "104336.117500", "104337.607500", "104339.097500", "104340.587500", "104342.077500", "104343.567500", "104345.057500", "104346.547500", "104348.037500", "104349.527500", "104351.017500", "104352.507500", "104353.997500", "104355.487500", "104356.977500", "104358.467500", "104359.957500", "104401.447500", "104402.937500", "104404.427500", "104405.917500", "104407.407500", "104408.897500", "104410.387500", "104411.877500", "104413.367500", "104414.857500", "104416.347500", "104417.837500", "104419.327500", "104420.817500", "104422.307500", "104423.797500", "104425.287500", "104426.777500", "104428.267500", "104429.757500", "104431.247500", "104432.737500", "104434.227500", "104435.717500", "104437.207500", "104438.697500", "104440.187500", "104441.677500", "104443.167500", "104444.657500", "104446.147500", "104447.637500", "104449.127500", "104450.617500", "104452.107500", "104453.597500", "104455.087500", "104456.577500", "104458.067500", "104459.557500", "104501.047500", "104502.537500", "104504.027500", "104505.517500", "104507.007500", "104508.497500", "104509.987500", "104511.477500", "104512.967500", "104514.457500", "104515.947500", "104517.437500", "104518.927500", "104520.417500", "104521.907500", "104523.397500", "104524.887500", "104526.377500", "104527.867500", "104529.357500", "104530.847500", "104532.337500", "104533.827500", "104535.317500", "104536.807500", "104538.297500", "104539.787500", "104541.277500", "104542.767500", "104544.257500", "104545.747500", "104547.237500", "104548.727500", "104550.217500", "104551.707500", "104553.197500", "104554.687500", "104556.177500", "104557.667500", "104559.157500", "104600.647500", "104602.137500", "104603.627500", "104605.117500", "104606.607500", "104608.097500", "104609.587500", "104611.077500", "104612.567500", "104614.057500", "104615.547500", "104617.037500", "104618.527500", "104620.017500", "104621.507500", "104622.997500", "104624.487500", "104625.977500", "104627.467500", "104628.957500", "104630.447500", "104631.937500", "104633.427500", "104634.917500", "104636.407500", "104637.897500", "104639.387500", "104640.877500", "104642.367500", "104643.857500", "104645.347500", "104646.837500", "104648.327500", "104649.817500", "104651.307500", "104652.797500", "104654.287500", "104655.777500", "104657.267500", "104658.757500", "104700.247500", "104701.737500", "104703.227500", "104704.717500", "104706.207500", "104707.697500", "104709.187500", "104710.677500", "104712.167500", "104713.657500", "104715.147500", "104716.637500", "104718.127500", "104719.617500", "104721.107500", "104722.597500", "104724.087500", "104725.577500", "104727.067500", "104728.557500", "104730.047500", "104731.537500", "104733.027500", "104734.517500", "104736.007500", "104737.497500", "104738.987500", "104740.477500", "104741.967500", "104743.457500", "104744.947500", "104746.437500", "104747.927500", "104749.417500", "104750.907500", "104752.397500", "104753.887500", "104755.377500", "104756.867500", "104758.357500", "104759.847500", "104801.337500", "104802.827500", "104804.317500", "104805.807500", "104807.297500", "104808.787500", "104810.277500", "104811.767500", "104813.257500", "104814.747500", "104816.237500", "104817.727500", "104819.217500", "104820.707500", "104822.197500", "104823.687500", "104825.177500", "104826.667500", "104828.157500", "104829.647500", "104831.137500", "104832.627500", "104834.117500", "104835.607500", "104837.097500", "104838.587500", "104840.077500", "104841.567500", "104843.057500", "104844.547500", "104846.037500", "104847.527500", "104849.017500", "104850.507500", "104851.997500", "104853.487500", "104854.977500", "104856.467500", "104857.957500", "104859.447500", "104900.937500", "104902.427500", "104903.917500", "104905.407500", "104906.897500", "104908.387500", "104909.877500", "104911.367500", "104912.857500", "104914.347500", "104915.837500", "104917.327500", "104918.817500", "104920.307500", "104921.797500", "104923.287500", "104924.777500", "104926.267500", "104927.757500", "104929.247500", "104930.737500", "104932.227500", "104933.717500", "104935.207500", "104936.697500", "104938.187500", "104939.677500", "104941.167500", "104942.657500", "104944.147500", "104945.637500", "104947.127500", "104948.617500", "104950.107500", "104951.597500", "104953.087500", "104954.577500", "104956.067500", "104957.557500", "104959.047500", "105000.537500", "105002.027500", "105003.517500", "105005.007500", "105006.497500", "105007.987500", "105009.477500", "105010.967500", "105012.457500", "105013.947500", "105015.437500", "105016.927500", "105018.417500", "105019.907500", "105021.397500", "105022.887500", "105024.377500", "105025.867500", "105027.357500", "105028.847500", "105030.337500", "105031.827500", "105033.317500", "105034.807500", "105036.297500", "105037.787500", "105039.277500", "105040.767500", "105042.257500", "105043.747500", "105045.237500", "105046.727500", "105048.217500", "105049.707500", "105051.197500", "105052.687500", "105054.177500", "105055.667500", "105057.157500", "105058.647500", "105100.137500", "105101.627500", "105103.117500", "105104.607500", "105106.097500", "105107.587500", "105109.077500", "105110.567500", "105112.057500", "105113.547500", "105115.037500", "105116.527500", "105118.017500", "105119.507500", "105120.997500", "105122.487500", "105123.977500", "105125.467500", "105126.957500", "105128.447500", "105129.937500", "105131.427500", "105132.917500", "105134.407500", "105135.897500", "105137.387500", "105138.877500", "105140.367500", "105141.857500", "105143.347500", "105144.837500", "105146.327500", "105147.817500", "105149.307500", "105150.797500", "105152.287500", "105153.777500", "105155.267500", "105156.757500", "105158.247500", "105159.737500", "105201.227500", "105202.717500", "105204.207500", "105205.697500", "105207.187500", "105208.677500", "105210.167500", "105211.657500", "105213.147500", "105214.637500", "105216.127500", "105217.617500", "105219.107500", "105220.597500", "105222.087500", "105223.577500", "105225.067500", "105226.557500", "105228.047500", "105229.537500", "105231.027500", "105232.517500", "105234.007500", "105235.497500", "105236.987500", "105238.477500", "105239.967500", "105241.457500", "105242.947500", "105244.437500", "105245.927500", "105247.417500", "105248.907500", "105250.397500", "105251.887500", "105253.377500", "105254.867500", "105256.357500", "105257.847500", "105259.337500", "105300.827500", "105302.317500", "105303.807500", "105305.297500", "105306.787500", "105308.277500"],
      "ContentTime": ["104257.585000", "104257.588000", "104257.591000", "104257.594000", "104257.597000", "104257.600000", "104257.603000", "104257.606000", "104257.609000", "104257.612000", "104257.615000", "104257.625000", "104257.628000", "104257.630000", "104257.633000", "104257.637000", "104257.640000", "104257.642000", "104257.645000", "104257.648000", "104257.651000", "104257.654000", "104257.657000", "104257.660000", "104257.663000", "104257.666000", "104257.669000", "104317.535000", "104317.538000", "104317.541000", "104317.550000", "104317.553000", "104317.555000", "104317.558000", "104317.561000", "104317.564000", "104317.567000", "104317.570000", "104317.574000", "104317.576000", "104317.579000", "104317.590000", "104317.593000", "104317.596000", "104317.598000", "104317.601000", "104317.604000", "104337.535000", "104337.538000", "104337.541000", "104337.544000", "104337.547000", "104337.549000", "104337.552000", "104337.561000", "104337.564000", "104337.567000", "104337.570000", "104337.573000", "104337.576000", "104337.579000", "104337.581000", "104337.585000", "104337.588000", "104337.591000", "104337.594000", "104337.598000", "104357.535000", "104357.538000", "104357.541000", "104357.544000", "104357.547000", "104357.550000", "104357.553000", "104357.556000", "104357.559000", "104357.562000", "104357.565000", "104357.568000", "104357.571000", "104357.574000", "104357.577000", "104357.580000", "104357.583000", "104357.586000", "104357.589000", "104357.592000", "104417.535000", "104417.538000", "104417.541000", "104417.544000", "104417.547000", "104417.550000", "104417.553000", "104417.556000", "104417.559000", "104417.562000", "104417.565000", "104417.568000", "104417.571000", "104417.574000", "104417.576000", "104417.588000", "104417.591000", "104417.594000", "104417.597000", "104417.600000", "104437.535000", "104437.538000", "104437.541000", "104437.544000", "104437.547000", "104437.549000", "104437.552000", "104437.555000", "104437.559000", "104437.562000", "104437.566000", "104437.568000", "104437.572000", "104437.575000", "104437.577000", "104437.580000", "104437.584000", "104437.587000", "104437.590000", "104437.592000", "104457.535000", "104457.539000", "104457.542000", "104457.545000", "104457.548000", "104457.551000", "104457.554000", "104457.557000", "104457.560000", "104457.563000", "104457.566000", "104457.569000", "104457.572000", "104457.575000", "104457.578000", "104457.581000", "104457.584000", "104457.587000", "104457.590000", "104457.593000", "104457.596000", "104537.535000", "104537.538000", "104537.541000", "104537.544000", "104537.547000", "104537.550000", "104537.553000", "104537.556000", "104537.559000", "104537.562000", "104537.565000", "104537.568000", "104537.571000", "104537.574000", "104537.577000", "104537.580000", "104537.582000", "104537.585000", "104537.588000", "104537.591000", "104537.600000", "104537.603000", "104537.606000", "104537.609000", "104537.612000", "104537.615000", "104537.618000", "104537.621000", "104537.624000", "104537.626000", "104537.629000", "104617.535000", "104617.538000", "104617.541000", "104617.544000", "104617.547000", "104617.550000", "104617.553000", "104617.556000", "104617.559000", "104617.561000", "104617.564000", "104617.567000", "104617.570000", "104617.573000", "104617.576000", "104617.579000", "104617.582000", "104617.585000", "104617.588000", "104617.591000", "104617.594000", "104617.597000", "104617.600000", "104617.603000", "104617.606000", "104617.609000", "104657.535000", "104657.538000", "104657.541000", "104657.544000", "104657.547000", "104657.550000", "104657.553000", "104657.555000", "104657.558000", "104657.561000", "104657.564000", "104657.567000", "104657.570000", "104657.573000", "104657.576000", "104657.579000", "104657.582000", "104657.585000", "104657.588000", "104657.591000", "104657.593000", "104657.596000", "104657.599000", "104657.602000", "104657.605000", "104657.608000", "104657.611000", "104737.535000", "104737.538000", "104737.541000", "104737.544000", "104737.547000", "104737.550000", "104737.553000", "104737.556000", "104737.559000", "104737.562000", "104737.565000", "104737.567000", "104737.570000", "104737.573000", "104737.576000", "104737.579000", "104737.582000", "104737.585000", "104737.588000", "104737.591000", "104737.594000", "104737.597000", "104737.600000", "104737.603000", "104737.605000", "104737.608000", "104737.611000", "104817.535000", "104817.538000", "104817.541000", "104817.544000", "104817.547000", "104817.550000", "104817.553000", "104817.556000", "104817.559000", "104817.561000", "104817.564000", "104817.567000", "104817.570000", "104817.573000", "104817.576000", "104817.579000", "104817.582000", "104817.585000", "104817.588000", "104817.591000", "104817.594000", "104817.596000", "104817.599000", "104817.602000", "104817.605000", "104817.608000", "104817.611000", "104857.535000", "104857.538000", "104857.541000", "104857.544000", "104857.547000", "104857.550000", "104857.553000", "104857.556000", "104857.559000", "104857.562000", "104857.565000", "104857.568000", "104857.571000", "104857.574000", "104857.577000", "104857.580000", "104857.582000", "104857.585000", "104857.588000", "104857.591000", "104857.594000", "104857.597000", "104857.600000", "104857.603000", "104857.606000", "104857.609000", "104857.612000", "104937.535000", "104937.538000", "104937.541000", "104937.544000", "104937.547000", "104937.550000", "104937.553000", "104937.556000", "104937.559000", "104937.562000", "104937.565000", "104937.568000", "104937.570000", "104937.573000", "104937.576000", "104937.579000", "104937.582000", "104937.585000", "104937.588000", "104937.596000", "104937.599000", "104937.601000", "104937.604000", "104937.607000", "104937.610000", "104937.613000", "104937.616000", "105017.535000", "105017.539000", "105017.542000", "105017.545000", "105017.549000", "105017.552000", "105017.555000", "105017.558000", "105017.561000", "105017.564000", "105017.567000", "105017.570000", "105017.573000", "105017.576000", "105017.579000", "105017.581000", "105017.584000", "105017.587000", "105017.590000", "105017.593000", "105017.596000", "105017.599000", "105017.602000", "105017.605000", "105017.608000", "105017.627000", "105057.535000", "105057.538000", "105057.541000", "105057.544000", "105057.547000", "105057.550000", "105057.553000", "105057.555000", "105057.558000", "105057.561000", "105057.564000", "105057.567000", "105057.570000", "105057.573000", "105057.576000", "105057.579000", "105057.582000", "105057.584000", "105057.587000", "105057.590000", "105057.593000", "105057.596000", "105057.599000", "105057.602000", "105057.605000", "105057.608000", "105057.611000", "105137.535000", "105137.538000", "105137.541000", "105137.544000", "105137.547000", "105137.550000", "105137.553000", "105137.556000", "105137.559000", "105137.562000", "105137.564000", "105137.567000", "105137.570000", "105137.573000", "105137.576000", "105137.579000", "105137.582000", "105137.585000", "105137.588000", "105137.591000", "105137.594000", "105137.597000", "105137.600000", "105137.603000", "105137.606000", "105137.609000", "105137.612000", "105217.535000", "105217.538000", "105217.541000", "105217.544000", "105217.547000", "105217.550000", "105217.553000", "105217.556000", "105217.559000", "105217.562000", "105217.565000", "105217.568000", "105217.571000", "105217.573000", "105217.576000", "105217.579000", "105217.582000", "105217.585000", "105217.588000", "105217.591000", "105217.594000", "105217.597000", "105217.600000", "105217.603000", "105217.606000", "105217.608000", "105217.611000", "105257.535000", "105257.538000", "105257.541000", "105257.544000", "105257.547000", "105257.550000", "105257.553000", "105257.556000", "105257.559000", "105257.562000", "105257.565000", "105257.568000", "105257.571000", "105257.574000", "105257.577000", "105257.579000", "105257.582000", "105257.585000", "105257.588000", "105257.591000", "105257.594000", "105257.597000", "105257.600000", "105257.603000", "105257.606000", "105257.609000", "105257.611000", "105310.603000", "105310.606000", "105310.609000", "105310.612000", "105310.615000", "105310.618000", "105310.621000", "105310.624000", "105310.627000"],
