{
  "AcquisitionMatrixPE": 104,
  "AcquisitionNumber": 1,
  "AcquisitionTime": "11:06:5.842500",
  "BandwidthPerPixelPhaseEncode": 17.17,
  "BaseResolution": 104,
  "BodyPartExamined": "BRAIN",
  "CoilString": "HC1-7;NC1_2",
  "ConsistencyInfo": "N4_VE11C_LATEST_20160120",
  "ConversionSoftware": "dcm2niix",
  "ConversionSoftwareVersion": "v1.0.20190902",
  "DerivedVendorReportedEchoSpacing": 0.000560011,
  "DeviceSerialNumber": "167006",
  "DwellTime": 2.1e-06,
  "EchoTime": 0.037,
  "EchoTrainLength": 104,
  "EffectiveEchoSpacing": 0.000560011,
  "FlipAngle": 52,
  "ImageComments": "Unaliased_MB4_PE3_LB",
  "ImageOrientationPatientDICOM": [0.999673, 0.0184708, 0.017691, -0.00697916, 0.862451, -0.506092],
  "ImageType": [
    "ORIGINAL",
    "PRIMARY",
    "M",
    "MB",
    "ND",
    "MOSAIC"
],
  "ImagingFrequency": 123.259,
  "InPlanePhaseEncodingDirectionDICOM": "COL",
  "InstitutionAddress": "Chemin_Queen-Mary_4565_Montreal_District_CA_H3W_1W5",
  "InstitutionName": "IUGM",
  "InstitutionalDepartmentName": "Department",
  "MRAcquisitionType": "2D",
  "MagneticFieldStrength": 3,
  "Manufacturer": "Siemens",
  "ManufacturersModelName": "Prisma_fit",
  "Modality": "MR",
  "MultibandAccelerationFactor": 4,
  "PartialFourier": 1,
  "PatientPosition": "HFS",
  "PercentPhaseFOV": 100,
  "PhaseEncodingDirection": "j",
  "PhaseEncodingSteps": 104,
  "PhaseResolution": 1,
  "PixelBandwidth": 2290,
  "ProcedureStepDescription": "games_shinobi",
  "ProtocolName": "func_task-shinobi_run-3",
  "PulseSequenceDetails": "%CustomerSeq%_cmrr_mbep2d_bold",
  "ReceiveCoilActiveElements": "HC1-7;NC1,2",
  "ReceiveCoilName": "HeadNeck_64",
  "ReconMatrixPE": 104,
  "RepetitionTime": 1.49,
  "SAR": 0.0354432,
  "ScanOptions": "FS",
  "ScanningSequence": "EP",
  "SequenceName": "epfid2d1_104",
  "SequenceVariant": "SK_SS",
  "SeriesDescription": "func_task-shinobi_run-3",
  "SeriesNumber": 13,
  "ShimSetting": [630, -7210, -8878, 375, -5, -218, 16, -8],
  "SliceThickness": 2,
  "SliceTiming": [0, 0.7825, 0.0975, 0.88, 0.195, 0.98, 0.2925, 1.0775, 0.39, 1.175, 0.49, 1.2725, 0.5875, 1.37, 0.685, 0, 0.7825, 0.0975, 0.88, 0.195, 0.98, 0.2925, 1.0775, 0.39, 1.175, 0.49, 1.2725, 0.5875, 1.37, 0.685, 0, 0.7825, 0.0975, 0.88, 0.195, 0.98, 0.2925, 1.0775, 0.39, 1.175, 0.49, 1.2725, 0.5875, 1.37, 0.685, 0, 0.7825, 0.0975, 0.88, 0.195, 0.98, 0.2925, 1.0775, 0.39, 1.175, 0.49, 1.2725, 0.5875, 1.37, 0.685],
  "SoftwareVersions": "syngo_MR_E11",
  "SpacingBetweenSlices": 2,
  "StationName": "MRC35049",
  "TaskName": "shinobi",
  "TotalReadoutTime": 0.0576811,
  "TxRefAmp": 248.666,
  "WipMemBlock": "23446335-2ac5-4f60-b0ea-3b0081a60c70||Sequence: R016 ve11c/master r/e634e98; Dec 19 2017 11:00:25 by eja",
  "dcmmeta_affine": [
    [-1.9993457794189453, -0.013958312571048737, 0.04921100288629532, 106.81069946289062],
    [-0.03694150969386101, 1.724902868270874, -1.0116053819656372, -49.2667236328125],
    [0.035381950438022614, 1.012183427810669, 1.7245965003967285, -93.48573303222656],
    [0.0, 0.0, 0.0, 1.0]
],
  "dcmmeta_reorient_transform": [
    [0.0, -1.0, 0.0, 103.0],
    [1.0, 0.0, 0.0, 0.0],
    [0.0, 0.0, 1.0, 0.0],
    [0.0, 0.0, 0.0, 1.0]
],
  "dcmmeta_shape": [104, 104, 60, 448],
  "dcmmeta_slice_dim": 2,
  "dcmmeta_version": 0.6,
  "global": {
    "const": {
      "AcquisitionMatrix": [104, 0, 0, 104],
      "AngioFlag": "N",
      "BitsAllocated": 16,
      "BitsStored": 16,
      "BodyPartExamined": "BRAIN",
      "Columns": 832,
      "EchoNumbers": 1,
      "EchoTime": 37.0,
      "EchoTrainLength": 104,
      "FlipAngle": 52.0,
      "HighBit": 15,
      "ImageOrientationPatient": [0.99967287682321, 0.01847075446446, 0.01769097435203, -0.0069791562464, 0.86245143249593, -0.5060917090447],
      "ImagePositionPatient": [-828.05402092164, -769.70962344265, 366.32489039029],
      "ImageType": [
        "ORIGINAL",
        "PRIMARY",
        "M",
        "MB",
        "ND",
        "MOSAIC"
],
      "ImagedNucleus": "1H",
      "ImagingFrequency": 123.259049,
      "InPlanePhaseEncodingDirection": "COL",
      "MRAcquisitionType": "2D",
      "MagneticFieldStrength": 3.0,
      "Manufacturer": "SIEMENS",
      "ManufacturerModelName": "Prisma_fit",
      "Modality": "MR",
      "NumberOfAverages": 1.0,
      "NumberOfPhaseEncodingSteps": 104,
      "PercentPhaseFieldOfView": 100.0,
      "PercentSampling": 100.0,
      "PerformedProcedureStepStartTime": "103807.975000",
      "PhotometricInterpretation": "MONOCHROME2",
      "PixelBandwidth": 2290.0,
      "PixelRepresentation": 0,
      "PixelSpacing": [2.0, 2.0],
      "ProtocolName": "func_task-shinobi_run-3",
      "RepetitionTime": 1490.0,
      "Rows": 832,
      "SAR": 0.03544318390787,
      "SamplesPerPixel": 1,
      "ScanOptions": "FS",
      "ScanningSequence": "EP",
      "SequenceName": "epfid2d1_104",
      "SequenceVariant": [
        "SK",
        "SS"
],
      "SeriesDescription": "func_task-shinobi_run-3",
      "SeriesNumber": 13,
      "SeriesTime": "110730.464000",
      "SliceLocation": -53.065211648832,
      "SliceThickness": 2.0,
      "SmallestImagePixelValue": 0,
      "SoftwareVersions": "syngo MR E11",
      "SpacingBetweenSlices": 2.0000000302539,
      "SpecificCharacterSet": "ISO_IR 100",
      "StudyID": "1",
      "StudyTime": "103807.892000",
      "TransmitCoilName": "Body",
      "VariableFlipAngleFlag": "N",
      "WindowCenterWidthExplanation": "Algo1",
      "dBdt": 0.0},
    "slices": {}
  },
  "time": {
    "samples": {
      "AcquisitionNumber": [1, 2, 3, 4, 5, 6, 7, 8, 9, 10, 11, 12, 13, 14, 15, 16, 17, 18, 19, 20, 21, 22, 23, 24, 25, 26, 27, 28, 29, 30, 31, 32, 33, 34, 35, 36, 37, 38, 39, 40, 41, 42, 43, 44, 45, 46, 47, 48, 49, 50, 51, 52, 53, 54, 55, 56, 57, 58, 59, 60, 61, 62, 63, 64, 65, 66, 67, 68, 69, 70, 71, 72, 73, 74, 75, 76, 77, 78, 79, 80, 81, 82, 83, 84, 85, 86, 87, 88, 89, 90, 91, 92, 93, 94, 95, 96, 97, 98, 99, 100, 101, 102, 103, 104, 105, 106, 107, 108, 109, 110, 111, 112, 113, 114, 115, 116, 117, 118, 119, 120, 121, 122, 123, 124, 125, 126, 127, 128, 129, 130, 131, 132, 133, 134, 135, 136, 137, 138, 139, 140, 141, 142, 143, 144, 145, 146, 147, 148, 149, 150, 151, 152, 153, 154, 155, 156, 157, 158, 159, 160, 161, 162, 163, 164, 165, 166, 167, 168, 169, 170, 171, 172, 173, 174, 175, 176, 177, 178, 179, 180, 181, 182, 183, 184, 185, 186, 187, 188, 189, 190, 191, 192, 193, 194, 195, 196, 197, 198, 199, 200, 201, 202, 203, 204, 205, 206, 207, 208, 209, 210, 211, 212, 213, 214, 215, 216, 217, 218, 219, 220, 221, 222, 223, 224, 225, 226, 227, 228, 229, 230, 231, 232, 233, 234, 235, 236, 237, 238, 239, 240, 241, 242, 243, 244, 245, 246, 247, 248, 249, 250, 251, 252, 253, 254, 255, 256, 257, 258, 259, 260, 261, 262, 263, 264, 265, 266, 267, 268, 269, 270, 271, 272, 273, 274, 275, 276, 277, 278, 279, 280, 281, 282, 283, 284, 285, 286, 287, 288, 289, 290, 291, 292, 293, 294, 295, 296, 297, 298, 299, 300, 301, 302, 303, 304, 305, 306, 307, 308, 309, 310, 311, 312, 313, 314, 315, 316, 317, 318, 319, 320, 321, 322, 323, 324, 325, 326, 327, 328, 329, 330, 331, 332, 333, 334, 335, 336, 337, 338, 339, 340, 341, 342, 343, 344, 345, 346, 347, 348, 349, 350, 351, 352, 353, 354, 355, 356, 357, 358, 359, 360, 361, 362, 363, 364, 365, 366, 367, 368, 369, 370, 371, 372, 373, 374, 375, 376, 377, 378, 379, 380, 381, 382, 383, 384, 385, 386, 387, 388, 389, 390, 391, 392, 393, 394, 395, 396, 397, 398, 399, 400, 401, 402, 403, 404, 405, 406, 407, 408, 409, 410, 411, 412, 413, 414, 415, 416, 417, 418, 419, 420, 421, 422, 423, 424, 425, 426, 427, 428, 429, 430, 431, 432, 433, 434, 435, 436, 437, 438, 439, 440, 441, 442, 443, 444, 445, 446, 447, 448],
      "AcquisitionTime": ["110605.842500", "110607.332500", "110608.822500", "110610.312500", "110611.802500", "110613.292500", "110614.782500", "110616.272500", "110617.762500", "110619.252500", "110620.742500", "110622.232500", "110623.722500", "110625.212500", "110626.702500", "110628.192500", "110629.682500", "110631.172500", "110632.662500", "110634.152500", "110635.642500", "110637.132500", "110638.622500", "110640.112500", "110641.602500", "110643.092500", "110644.582500", "110646.072500", "110647.562500", "110649.052500", "110650.542500", "110652.032500", "110653.522500", "110655.012500", "110656.502500", "110657.992500", "110659.482500", "110700.972500", "110702.462500", "110703.952500", "110705.442500", "110706.932500", "110708.422500", "110709.912500", "110711.402500", "110712.892500", "110714.382500", "110715.872500", "110717.362500", "110718.852500", "110720.342500", "110721.832500", "110723.322500", "110724.812500", "110726.302500", "110727.792500", "110729.282500", "110730.772500", "110732.262500", "110733.752500", "110735.242500", "110736.732500", "110738.222500", "110739.712500", "110741.202500", "110742.692500", "110744.182500", "110745.672500", "110747.162500", "110748.652500", "110750.142500", "110751.632500", "110753.122500", "110754.612500", "110756.102500", "110757.592500", "110759.082500", "110800.572500", "110802.062500", "110803.552500", "110805.042500", "110806.532500", "110808.022500", "110809.512500", "110811.002500", "110812.492500", "110813.982500", "110815.472500", "110816.962500", "110818.452500", "110819.942500", "110821.432500", "110822.922500", "110824.412500", "110825.902500", "110827.392500", "110828.882500", "110830.372500", "110831.862500", "110833.352500", "110834.842500", "110836.332500", "110837.822500", "110839.312500", "110840.802500", "110842.292500", "110843.782500", "110845.272500", "110846.762500", "110848.252500", "110849.742500", "110851.232500", "110852.722500", "110854.212500", "110855.702500", "110857.192500", "110858.682500", "110900.172500", "110901.662500", "110903.152500", "110904.642500", "110906.132500", "110907.622500", "110909.112500", "110910.602500", "110912.092500", "110913.582500", "110915.072500", "110916.562500", "110918.052500", "110919.542500", "110921.032500", "110922.522500", "110924.012500", "110925.502500", "110926.992500", "110928.482500", "110929.972500", "110931.462500", "110932.952500", "110934.442500", "110935.932500", "110937.422500", "110938.912500", "110940.402500", "110941.892500", "110943.382500", "110944.872500", "110946.362500", "110947.852500", "110949.342500", "110950.832500", "110952.322500", "110953.812500", "110955.302500", "110956.792500", "110958.282500", "110959.772500", "111001.262500", "111002.752500", "111004.242500", "111005.732500", "111007.222500", "111008.712500", "111010.202500", "111011.692500", "111013.182500", "111014.672500", "111016.162500", "111017.652500", "111019.142500", "111020.632500", "111022.122500", "111023.612500", "111025.102500", "111026.592500", "111028.082500", "111029.572500", "111031.062500", "111032.552500", "111034.042500", "111035.532500", "111037.022500", "111038.512500", "111040.002500", "111041.492500", "111042.982500", "111044.472500", "111045.962500", "111047.452500", "111048.942500", "111050.432500", "111051.922500", "111053.412500", "111054.902500", "111056.392500", "111057.882500", "111059.372500", "111100.862500", "111102.352500", "111103.842500", "111105.332500", "111106.822500", "111108.312500", "111109.802500", "111111.292500", "111112.782500", "111114.272500", "111115.762500", "111117.252500", "111118.742500", "111120.232500", "111121.722500", "111123.212500", "111124.702500", "111126.192500", "111127.682500", "111129.172500", "111130.662500", "111132.152500", "111133.642500", "111135.132500", "111136.622500", "111138.112500", "111139.602500", "111141.092500", "111142.582500", "111144.072500", "111145.562500", "111147.052500", "111148.542500", "111150.032500", "111151.522500", "111153.012500", "111154.502500", "111155.992500", "111157.482500", "111158.972500", "111200.462500", "111201.952500", "111203.442500", "111204.932500", "111206.422500", "111207.912500", "111209.402500", "111210.892500", "111212.382500", "111213.872500", "111215.362500", "111216.852500", "111218.342500", "111219.832500", "111221.322500", "111222.812500", "111224.302500", "111225.792500", "111227.282500", "111228.772500", "111230.262500", "111231.752500", "111233.242500", "111234.732500", "111236.222500", "111237.712500", "111239.202500", "111240.692500", "111242.182500", "111243.672500", "111245.162500", "111246.652500", "111248.142500", "111249.632500", "111251.122500", "111252.612500", "111254.102500", "111255.592500", "111257.082500", "111258.572500", "111300.062500", "111301.552500", "111303.042500", "111304.532500", "111306.022500", "111307.512500", "111309.002500", "111310.492500", "111311.982500", "111313.472500", "111314.962500", "111316.452500", "111317.942500", "111319.432500", "111320.922500", "111322.412500", "111323.902500", "111325.392500", "111326.882500", "111328.372500", "111329.862500", "111331.352500", "111332.842500", "111334.332500", "111335.822500", "111337.312500", "111338.802500", "111340.292500", "111341.782500", "111343.272500", "111344.762500", "111346.252500", "111347.742500", "111349.232500", "111350.722500", "111352.212500", "111353.702500", "111355.192500", "111356.682500", "111358.172500", "111359.662500", "111401.152500", "111402.642500", "111404.132500", "111405.622500", "111407.112500", "111408.602500", "111410.092500", "111411.582500", "111413.072500", "111414.562500", "111416.052500", "111417.542500", "111419.032500", "111420.522500", "111422.012500", "111423.502500", "111424.992500", "111426.482500", "111427.972500", "111429.462500", "111430.952500", "111432.442500", "111433.932500", "111435.422500", "111436.912500", "111438.402500", "111439.892500", "111441.382500", "111442.872500", "111444.362500", "111445.852500", "111447.342500", "111448.832500", "111450.322500", "111451.812500", "111453.302500", "111454.792500", "111456.282500", "111457.772500", "111459.262500", "111500.752500", "111502.242500", "111503.732500", "111505.222500", "111506.712500", "111508.202500", "111509.692500", "111511.182500", "111512.672500", "111514.162500", "111515.652500", "111517.142500", "111518.632500", "111520.122500", "111521.612500", "111523.102500", "111524.592500", "111526.082500", "111527.572500", "111529.062500", "111530.552500", "111532.042500", "111533.532500", "111535.022500", "111536.512500", "111538.002500", "111539.492500", "111540.982500", "111542.472500", "111543.962500", "111545.452500", "111546.942500", "111548.432500", "111549.922500", "111551.412500", "111552.902500", "111554.392500", "111555.882500", "111557.372500", "111558.862500", "111600.352500", "111601.842500", "111603.332500", "111604.822500", "111606.312500", "111607.802500", "111609.292500", "111610.782500", "111612.272500", "111613.762500", "111615.252500", "111616.742500", "111618.232500", "111619.722500", "111621.212500", "111622.702500", "111624.192500", "111625.682500", "111627.172500", "111628.662500", "111630.152500", "111631.642500", "111633.132500", "111634.622500", "111636.112500", "111637.602500", "111639.092500", "111640.582500", "111642.072500", "111643.562500", "111645.052500", "111646.542500", "111648.032500", "111649.522500", "111651.012500", "111652.502500", "111653.992500", "111655.482500", "111656.972500", "111658.462500", "111659.952500", "111701.442500", "111702.932500", "111704.422500", "111705.912500", "111707.402500", "111708.892500", "111710.382500", "111711.872500"],
      "ContentTime": ["110730.467000", "110730.470000", "110730.474000", "110730.477000", "110730.479000", "110730.491000", "110730.494000", "110730.496000", "110730.499000", "110730.502000", "110730.505000", "110730.508000", "110730.511000", "110730.514000", "110730.517000", "110730.520000", "110730.523000", "110730.526000", "110730.529000", "110730.532000", "110730.535000", "110730.538000", "110730.541000", "110730.544000", "110730.546000", "110730.549000", "110730.553000", "110730.555000", "110730.558000", "110730.561000", "110750.440000", "110750.443000", "110750.446000", "110750.449000", "110750.452000", "110750.455000", "110750.458000", "110750.461000", "110750.464000", "110750.467000", "110750.469000", "110750.472000", "110750.475000", "110750.478000", "110750.481000", "110750.484000", "110750.487000", "110750.490000", "110750.493000", "110750.496000", "110810.440000", "110810.443000", "110810.446000", "110810.449000", "110810.452000", "110810.455000", "110810.458000", "110810.460000", "110810.463000", "110810.466000", "110810.469000", "110810.479000", "110810.482000", "110810.485000", "110810.488000", "110810.496000", "110810.499000", "110810.502000", "110810.505000", "110810.508000", "110830.440000", "110830.443000", "110830.446000", "110830.449000", "110830.452000", "110830.455000", "110830.458000", "110830.468000", "110830.471000", "110830.474000", "110830.477000", "110830.480000", "110830.483000", "110830.486000", "110830.489000", "110830.492000", "110830.495000", "110830.497000", "110830.500000", "110830.503000", "110830.506000", "110910.440000", "110910.443000", "110910.446000", "110910.449000", "110910.452000", "110910.455000", "110910.458000", "110910.461000", "110910.464000", "110910.467000", "110910.469000", "110910.472000", "110910.475000", "110910.478000", "110910.481000", "110910.484000", "110910.487000", "110910.490000", "110910.493000", "110910.496000", "110910.499000", "110910.502000", "110910.505000", "110910.507000", "110910.510000", "110910.513000", "110910.516000", "110910.519000", "110910.522000", "110910.525000", "110910.528000", "110910.531000", "110950.440000", "110950.443000", "110950.446000", "110950.449000", "110950.452000", "110950.455000", "110950.458000", "110950.461000", "110950.464000", "110950.467000", "110950.469000", "110950.472000", "110950.475000", "110950.478000", "110950.481000", "110950.484000", "110950.487000", "110950.490000", "110950.493000", "110950.518000", "110950.521000", "110950.524000", "110950.527000", "110950.530000", "110950.533000", "110950.536000", "110950.539000", "111030.440000", "111030.443000", "111030.446000", "111030.449000", "111030.452000", "111030.455000", "111030.458000", "111030.461000", "111030.464000", "111030.467000", "111030.470000", "111030.473000", "111030.476000", "111030.479000", "111030.482000", "111030.485000", "111030.488000", "111030.491000", "111030.494000", "111030.497000", "111030.500000", "111030.503000", "111030.506000", "111030.509000", "111030.512000", "111030.515000", "111110.440000", "111110.443000", "111110.446000", "111110.449000", "111110.452000", "111110.455000", "111110.458000", "111110.461000", "111110.464000", "111110.467000", "111110.470000", "111110.473000", "111110.475000", "111110.478000", "111110.481000", "111110.484000", "111110.487000", "111110.490000", "111110.493000", "111110.496000", "111110.499000", "111110.502000", "111110.505000", "111110.508000", "111110.511000", "111110.514000", "111110.517000", "111150.440000", "111150.443000", "111150.446000", "111150.449000", "111150.452000", "111150.455000", "111150.458000", "111150.461000", "111150.464000", "111150.467000", "111150.470000", "111150.472000", "111150.475000", "111150.478000", "111150.481000", "111150.484000", "111150.487000", "111150.490000", "111150.493000", "111150.496000", "111150.499000", "111150.502000", "111150.505000", "111150.508000", "111150.511000", "111150.514000", "111150.516000", "111230.439000", "111230.442000", "111230.445000", "111230.448000", "111230.451000", "111230.454000", "111230.457000", "111230.460000", "111230.463000", "111230.466000", "111230.469000", "111230.471000", "111230.474000", "111230.477000", "111230.480000", "111230.483000", "111230.486000", "111230.489000", "111230.492000", "111230.495000", "111230.498000", "111230.501000", "111230.504000", "111230.507000", "111230.510000", "111230.512000", "111230.515000", "111310.440000", "111310.443000", "111310.446000", "111310.449000", "111310.452000", "111310.455000", "111310.458000", "111310.461000", "111310.464000", "111310.467000", "111310.470000", "111310.473000", "111310.476000", "111310.479000", "111310.482000", "111310.485000", "111310.488000", "111310.498000", "111310.501000", "111310.504000", "111310.507000", "111310.509000", "111310.512000", "111310.515000", "111310.518000", "111310.521000", "111310.524000", "111350.440000", "111350.443000", "111350.446000", "111350.449000", "111350.452000", "111350.455000", "111350.458000", "111350.461000", "111350.463000", "111350.466000", "111350.469000", "111350.472000", "111350.475000", "111350.478000", "111350.481000", "111350.484000", "111350.487000", "111350.490000", "111350.492000", "111350.495000", "111350.498000", "111350.501000", "111350.504000", "111350.507000", "111350.510000", "111350.513000", "111350.516000", "111410.440000", "111410.443000", "111410.446000", "111410.449000", "111410.452000", "111410.455000", "111410.458000", "111410.461000", "111410.464000", "111410.467000", "111410.470000", "111410.473000", "111410.475000", "111450.439000", "111450.442000", "111450.445000", "111450.448000", "111450.451000", "111450.454000", "111450.457000", "111450.460000", "111450.463000", "111450.466000", "111450.469000", "111450.472000", "111450.475000", "111450.478000", "111450.481000", "111450.484000", "111450.487000", "111450.490000", "111450.493000", "111450.496000", "111450.499000", "111450.502000", "111450.505000", "111450.508000", "111450.511000", "111450.514000", "111450.517000", "111530.440000", "111530.443000", "111530.446000", "111530.449000", "111530.452000", "111530.455000", "111530.458000", "111530.461000", "111530.464000", "111530.467000", "111530.470000", "111530.473000", "111530.476000", "111530.479000", "111530.482000", "111530.485000", "111530.488000", "111530.491000", "111530.494000", "111530.497000", "111530.500000", "111530.503000", "111530.506000", "111530.509000", "111530.512000", "111530.515000", "111530.518000", "111610.440000", "111610.443000", "111610.446000", "111610.449000", "111610.452000", "111610.455000", "111610.458000", "111610.461000", "111610.464000", "111610.467000", "111610.470000", "111610.472000", "111610.475000", "111610.478000", "111610.481000", "111610.484000", "111610.492000", "111610.495000", "111610.498000", "111610.501000", "111610.503000", "111610.506000", "111610.509000", "111610.516000", "111610.519000", "111610.522000", "111610.525000", "111650.440000", "111650.443000", "111650.446000", "111650.449000", "111650.452000", "111650.455000", "111650.458000", "111650.461000", "111650.464000", "111650.468000", "111650.471000", "111650.474000", "111650.477000", "111650.481000", "111650.484000", "111650.487000", "111650.490000", "111650.493000", "111650.496000", "111650.499000", "111650.502000", "111650.505000", "111650.508000", "111650.511000", "111650.514000", "111650.517000", "111714.550000", "111714.554000", "111714.557000", "111714.560000", "111714.563000", "111714.566000", "111714.569000", "111714.572000", "111714.575000", "111714.578000", "111714.581000", "111714.584000", "111714.587000", "111714.603000", "111714.606000", "111714.609000", "111714.612000"],
