{
  "AcquisitionMatrixPE": 104,
  "AcquisitionNumber": 1,
  "AcquisitionTime": "11:29:32.665000",
  "BandwidthPerPixelPhaseEncode": 17.17,
  "BaseResolution": 104,
  "BodyPartExamined": "BRAIN",
  "CoilString": "HC1-7;NC1_2",
  "ConsistencyInfo": "N4_VE11C_LATEST_20160120",
  "ConversionSoftware": "dcm2niix",
  "ConversionSoftwareVersion": "v1.0.20190902",
  "DerivedVendorReportedEchoSpacing": 0.000560011,
  "DeviceSerialNumber": "167006",
  "DwellTime": 2.1e-06,
  "EchoTime": 0.037,
  "EchoTrainLength": 104,
  "EffectiveEchoSpacing": 0.000560011,
  "FlipAngle": 52,
  "ImageComments": "Unaliased_MB4_PE3_LB",
  "ImageOrientationPatientDICOM": [0.999673, 0.0184708, 0.017691, -0.00697916, 0.862451, -0.506092],
  "ImageType": [
    "ORIGINAL",
    "PRIMARY",
    "M",
    "MB",
    "ND",
    "MOSAIC"
],
  "ImagingFrequency": 123.259,
  "InPlanePhaseEncodingDirectionDICOM": "COL",
  "InstitutionAddress": "Chemin_Queen-Mary_4565_Montreal_District_CA_H3W_1W5",
  "InstitutionName": "IUGM",
  "InstitutionalDepartmentName": "Department",
  "MRAcquisitionType": "2D",
  "MagneticFieldStrength": 3,
  "Manufacturer": "Siemens",
  "ManufacturersModelName": "Prisma_fit",
  "Modality": "MR",
  "MultibandAccelerationFactor": 4,
  "PartialFourier": 1,
  "PatientPosition": "HFS",
  "PercentPhaseFOV": 100,
  "PhaseEncodingDirection": "j",
  "PhaseEncodingSteps": 104,
  "PhaseResolution": 1,
  "PixelBandwidth": 2290,
  "ProcedureStepDescription": "games_shinobi",
  "ProtocolName": "func_task-shinobi_run-5",
  "PulseSequenceDetails": "%CustomerSeq%_cmrr_mbep2d_bold",
  "ReceiveCoilActiveElements": "HC1-7;NC1,2",
  "ReceiveCoilName": "HeadNeck_64",
  "ReconMatrixPE": 104,
  "RepetitionTime": 1.49,
  "SAR": 0.0354432,
  "ScanOptions": "FS",
  "ScanningSequence": "EP",
  "SequenceName": "epfid2d1_104",
  "SequenceVariant": "SK_SS",
  "SeriesDescription": "func_task-shinobi_run-5",
  "SeriesNumber": 17,
  "ShimSetting": [630, -7210, -8878, 375, -5, -218, 16, -8],
  "SliceThickness": 2,
  "SliceTiming": [0, 0.7825, 0.0975, 0.88, 0.195, 0.98, 0.2925, 1.0775, 0.39, 1.175, 0.49, 1.2725, 0.5875, 1.37, 0.685, 0, 0.7825, 0.0975, 0.88, 0.195, 0.98, 0.2925, 1.0775, 0.39, 1.175, 0.49, 1.2725, 0.5875, 1.37, 0.685, 0, 0.7825, 0.0975, 0.88, 0.195, 0.98, 0.2925, 1.0775, 0.39, 1.175, 0.49, 1.2725, 0.5875, 1.37, 0.685, 0, 0.7825, 0.0975, 0.88, 0.195, 0.98, 0.2925, 1.0775, 0.39, 1.175, 0.49, 1.2725, 0.5875, 1.37, 0.685],
  "SoftwareVersions": "syngo_MR_E11",
  "SpacingBetweenSlices": 2,
  "StationName": "MRC35049",
  "TaskName": "shinobi",
  "TotalReadoutTime": 0.0576811,
  "TxRefAmp": 248.666,
  "WipMemBlock": "c998cf3e-efce-4eed-bbd6-d34394eef432||Sequence: R016 ve11c/master r/e634e98; Dec 19 2017 11:00:25 by eja",
  "dcmmeta_affine": [
    [-1.9993457794189453, -0.013958312571048737, 0.04921100288629532, 106.81069946289062],
    [-0.03694150969386101, 1.724902868270874, -1.0116053819656372, -49.2667236328125],
    [0.035381950438022614, 1.012183427810669, 1.7245965003967285, -93.48573303222656],
    [0.0, 0.0, 0.0, 1.0]
],
  "dcmmeta_reorient_transform": [
    [0.0, -1.0, 0.0, 103.0],
    [1.0, 0.0, 0.0, 0.0],
    [0.0, 0.0, 1.0, 0.0],
    [0.0, 0.0, 0.0, 1.0]
],
  "dcmmeta_shape": [104, 104, 60, 432],
  "dcmmeta_slice_dim": 2,
  "dcmmeta_version": 0.6,
  "global": {
    "const": {
      "AcquisitionMatrix": [104, 0, 0, 104],
      "AngioFlag": "N",
      "BitsAllocated": 16,
      "BitsStored": 16,
      "BodyPartExamined": "BRAIN",
      "Columns": 832,
      "EchoNumbers": 1,
      "EchoTime": 37.0,
      "EchoTrainLength": 104,
      "FlipAngle": 52.0,
      "HighBit": 15,
      "ImageOrientationPatient": [0.99967287682321, 0.01847075446446, 0.01769097435203, -0.0069791562464, 0.86245143249593, -0.5060917090447],
      "ImagePositionPatient": [-828.05402092164, -769.70962344265, 366.32489039029],
      "ImageType": [
        "ORIGINAL",
        "PRIMARY",
        "M",
        "MB",
        "ND",
        "MOSAIC"
],
      "ImagedNucleus": "1H",
      "ImagingFrequency": 123.259047,
      "InPlanePhaseEncodingDirection": "COL",
      "MRAcquisitionType": "2D",
      "MagneticFieldStrength": 3.0,
      "Manufacturer": "SIEMENS",
      "ManufacturerModelName": "Prisma_fit",
      "Modality": "MR",
      "NumberOfAverages": 1.0,
      "NumberOfPhaseEncodingSteps": 104,
      "PercentPhaseFieldOfView": 100.0,
      "PercentSampling": 100.0,
      "PerformedProcedureStepStartTime": "103807.975000",
      "PhotometricInterpretation": "MONOCHROME2",
      "PixelBandwidth": 2290.0,
      "PixelRepresentation": 0,
      "PixelSpacing": [2.0, 2.0],
      "ProtocolName": "func_task-shinobi_run-5",
      "RepetitionTime": 1490.0,
      "Rows": 832,
      "SAR": 0.03544318390787,
      "SamplesPerPixel": 1,
      "ScanOptions": "FS",
      "ScanningSequence": "EP",
      "SequenceName": "epfid2d1_104",
      "SequenceVariant": [
        "SK",
        "SS"
],
      "SeriesDescription": "func_task-shinobi_run-5",
      "SeriesNumber": 17,
      "SeriesTime": "113053.282000",
      "SliceLocation": -53.065211648832,
      "SliceThickness": 2.0,
      "SmallestImagePixelValue": 0,
      "SoftwareVersions": "syngo MR E11",
      "SpacingBetweenSlices": 2.0000000302539,
      "SpecificCharacterSet": "ISO_IR 100",
      "StudyID": "1",
      "StudyTime": "103807.892000",
      "TransmitCoilName": "Body",
      "VariableFlipAngleFlag": "N",
      "WindowCenterWidthExplanation": "Algo1",
      "dBdt": 0.0},
    "slices": {}
  },
  "time": {
    "samples": {
      "AcquisitionNumber": [1, 2, 3, 4, 5, 6, 7, 8, 9, 10, 11, 12, 13, 14, 15, 16, 17, 18, 19, 20, 21, 22, 23, 24, 25, 26, 27, 28, 29, 30, 31, 32, 33, 34, 35, 36, 37, 38, 39, 40, 41, 42, 43, 44, 45, 46, 47, 48, 49, 50, 51, 52, 53, 54, 55, 56, 57, 58, 59, 60, 61, 62, 63, 64, 65, 66, 67, 68, 69, 70, 71, 72, 73, 74, 75, 76, 77, 78, 79, 80, 81, 82, 83, 84, 85, 86, 87, 88, 89, 90, 91, 92, 93, 94, 95, 96, 97, 98, 99, 100, 101, 102, 103, 104, 105, 106, 107, 108, 109, 110, 111, 112, 113, 114, 115, 116, 117, 118, 119, 120, 121, 122, 123, 124, 125, 126, 127, 128, 129, 130, 131, 132, 133, 134, 135, 136, 137, 138, 139, 140, 141, 142, 143, 144, 145, 146, 147, 148, 149, 150, 151, 152, 153, 154, 155, 156, 157, 158, 159, 160, 161, 162, 163, 164, 165, 166, 167, 168, 169, 170, 171, 172, 173, 174, 175, 176, 177, 178, 179, 180, 181, 182, 183, 184, 185, 186, 187, 188, 189, 190, 191, 192, 193, 194, 195, 196, 197, 198, 199, 200, 201, 202, 203, 204, 205, 206, 207, 208, 209, 210, 211, 212, 213, 214, 215, 216, 217, 218, 219, 220, 221, 222, 223, 224, 225, 226, 227, 228, 229, 230, 231, 232, 233, 234, 235, 236, 237, 238, 239, 240, 241, 242, 243, 244, 245, 246, 247, 248, 249, 250, 251, 252, 253, 254, 255, 256, 257, 258, 259, 260, 261, 262, 263, 264, 265, 266, 267, 268, 269, 270, 271, 272, 273, 274, 275, 276, 277, 278, 279, 280, 281, 282, 283, 284, 285, 286, 287, 288, 289, 290, 291, 292, 293, 294, 295, 296, 297, 298, 299, 300, 301, 302, 303, 304, 305, 306, 307, 308, 309, 310, 311, 312, 313, 314, 315, 316, 317, 318, 319, 320, 321, 322, 323, 324, 325, 326, 327, 328, 329, 330, 331, 332, 333, 334, 335, 336, 337, 338, 339, 340, 341, 342, 343, 344, 345, 346, 347, 348, 349, 350, 351, 352, 353, 354, 355, 356, 357, 358, 359, 360, 361, 362, 363, 364, 365, 366, 367, 368, 369, 370, 371, 372, 373, 374, 375, 376, 377, 378, 379, 380, 381, 382, 383, 384, 385, 386, 387, 388, 389, 390, 391, 392, 393, 394, 395, 396, 397, 398, 399, 400, 401, 402, 403, 404, 405, 406, 407, 408, 409, 410, 411, 412, 413, 414, 415, 416, 417, 418, 419, 420, 421, 422, 423, 424, 425, 426, 427, 428, 429, 430, 431, 432],
      "AcquisitionTime": ["112932.665000", "112934.155000", "112935.645000", "112937.135000", "112938.625000", "112940.115000", "112941.605000", "112943.095000", "112944.585000", "112946.075000", "112947.565000", "112949.055000", "112950.545000", "112952.035000", "112953.525000", "112955.015000", "112956.505000", "112957.995000", "112959.485000", "113000.975000", "113002.465000", "113003.955000", "113005.445000", "113006.935000", "113008.425000", "113009.915000", "113011.405000", "113012.895000", "113014.385000", "113015.875000", "113017.365000", "113018.855000", "113020.345000", "113021.835000", "113023.325000", "113024.815000", "113026.305000", "113027.795000", "113029.285000", "113030.775000", "113032.265000", "113033.755000", "113035.245000", "113036.735000", "113038.225000", "113039.715000", "113041.205000", "113042.695000", "113044.185000", "113045.675000", "113047.165000", "113048.655000", "113050.145000", "113051.635000", "113053.125000", "113054.615000", "113056.105000", "113057.595000", "113059.085000", "113100.575000", "113102.065000", "113103.555000", "113105.045000", "113106.535000", "113108.025000", "113109.515000", "113111.005000", "113112.495000", "113113.985000", "113115.475000", "113116.965000", "113118.455000", "113119.945000", "113121.435000", "113122.925000", "113124.415000", "113125.905000", "113127.395000", "113128.885000", "113130.375000", "113131.865000", "113133.355000", "113134.845000", "113136.335000", "113137.825000", "113139.315000", "113140.805000", "113142.295000", "113143.785000", "113145.275000", "113146.765000", "113148.255000", "113149.745000", "113151.235000", "113152.725000", "113154.215000", "113155.705000", "113157.195000", "113158.685000", "113200.175000", "113201.665000", "113203.155000", "113204.645000", "113206.135000", "113207.625000", "113209.115000", "113210.605000", "113212.095000", "113213.585000", "113215.075000", "113216.565000", "113218.055000", "113219.545000", "113221.035000", "113222.525000", "113224.015000", "113225.505000", "113226.995000", "113228.485000", "113229.975000", "113231.465000", "113232.955000", "113234.445000", "113235.935000", "113237.425000", "113238.915000", "113240.405000", "113241.895000", "113243.385000", "113244.875000", "113246.365000", "113247.855000", "113249.345000", "113250.835000", "113252.325000", "113253.815000", "113255.305000", "113256.795000", "113258.285000", "113259.775000", "113301.265000", "113302.755000", "113304.245000", "113305.735000", "113307.225000", "113308.715000", "113310.205000", "113311.695000", "113313.185000", "113314.675000", "113316.165000", "113317.655000", "113319.145000", "113320.635000", "113322.125000", "113323.615000", "113325.105000", "113326.595000", "113328.085000", "113329.575000", "113331.065000", "113332.555000", "113334.045000", "113335.535000", "113337.025000", "113338.515000", "113340.005000", "113341.495000", "113342.985000", "113344.475000", "113345.965000", "113347.455000", "113348.945000", "113350.435000", "113351.925000", "113353.415000", "113354.905000", "113356.395000", "113357.885000", "113359.375000", "113400.865000", "113402.355000", "113403.845000", "113405.335000", "113406.825000", "113408.315000", "113409.805000", "113411.295000", "113412.785000", "113414.275000", "113415.765000", "113417.255000", "113418.745000", "113420.235000", "113421.725000", "113423.215000", "113424.705000", "113426.195000", "113427.685000", "113429.175000", "113430.665000", "113432.155000", "113433.645000", "113435.135000", "113436.625000", "113438.115000", "113439.605000", "113441.095000", "113442.585000", "113444.075000", "113445.565000", "113447.055000", "113448.545000", "113450.035000", "113451.525000", "113453.015000", "113454.505000", "113455.995000", "113457.485000", "113458.975000", "113500.465000", "113501.955000", "113503.445000", "113504.935000", "113506.425000", "113507.915000", "113509.405000", "113510.895000", "113512.385000", "113513.875000", "113515.365000", "113516.855000", "113518.345000", "113519.835000", "113521.325000", "113522.815000", "113524.305000", "113525.795000", "113527.285000", "113528.775000", "113530.265000", "113531.755000", "113533.245000", "113534.735000", "113536.225000", "113537.715000", "113539.205000", "113540.695000", "113542.185000", "113543.675000", "113545.165000", "113546.655000", "113548.145000", "113549.635000", "113551.125000", "113552.615000", "113554.105000", "113555.595000", "113557.085000", "113558.575000", "113600.065000", "113601.555000", "113603.045000", "113604.535000", "113606.025000", "113607.515000", "113609.005000", "113610.495000", "113611.985000", "113613.475000", "113614.965000", "113616.455000", "113617.945000", "113619.435000", "113620.925000", "113622.415000", "113623.905000", "113625.395000", "113626.885000", "113628.375000", "113629.865000", "113631.355000", "113632.845000", "113634.335000", "113635.825000", "113637.315000", "113638.805000", "113640.295000", "113641.785000", "113643.275000", "113644.765000", "113646.255000", "113647.745000", "113649.235000", "113650.725000", "113652.215000", "113653.705000", "113655.195000", "113656.685000", "113658.175000", "113659.665000", "113701.155000", "113702.645000", "113704.135000", "113705.625000", "113707.115000", "113708.605000", "113710.095000", "113711.585000", "113713.075000", "113714.565000", "113716.055000", "113717.545000", "113719.035000", "113720.525000", "113722.015000", "113723.505000", "113724.995000", "113726.485000", "113727.975000", "113729.465000", "113730.955000", "113732.445000", "113733.935000", "113735.425000", "113736.915000", "113738.405000", "113739.895000", "113741.385000", "113742.875000", "113744.365000", "113745.855000", "113747.345000", "113748.835000", "113750.325000", "113751.815000", "113753.305000", "113754.795000", "113756.285000", "113757.775000", "113759.265000", "113800.755000", "113802.245000", "113803.735000", "113805.225000", "113806.715000", "113808.205000", "113809.695000", "113811.185000", "113812.675000", "113814.165000", "113815.655000", "113817.145000", "113818.635000", "113820.125000", "113821.615000", "113823.105000", "113824.595000", "113826.085000", "113827.575000", "113829.065000", "113830.555000", "113832.045000", "113833.535000", "113835.025000", "113836.515000", "113838.005000", "113839.495000", "113840.985000", "113842.475000", "113843.965000", "113845.455000", "113846.945000", "113848.435000", "113849.925000", "113851.415000", "113852.905000", "113854.395000", "113855.885000", "113857.375000", "113858.865000", "113900.355000", "113901.845000", "113903.335000", "113904.825000", "113906.315000", "113907.805000", "113909.295000", "113910.785000", "113912.275000", "113913.765000", "113915.255000", "113916.745000", "113918.235000", "113919.725000", "113921.215000", "113922.705000", "113924.195000", "113925.685000", "113927.175000", "113928.665000", "113930.155000", "113931.645000", "113933.135000", "113934.625000", "113936.115000", "113937.605000", "113939.095000", "113940.585000", "113942.075000", "113943.565000", "113945.055000", "113946.545000", "113948.035000", "113949.525000", "113951.015000", "113952.505000", "113953.995000", "113955.485000", "113956.975000", "113958.465000", "113959.955000", "114001.445000", "114002.935000", "114004.425000", "114005.915000", "114007.405000", "114008.895000", "114010.385000", "114011.875000", "114013.365000", "114014.855000"],
      "ContentTime": ["113053.285000", "113053.289000", "113053.292000", "113053.294000", "113053.297000", "113053.300000", "113053.303000", "113053.306000", "113053.317000", "113053.320000", "113053.323000", "113053.326000", "113053.329000", "113053.332000", "113053.335000", "113053.338000", "113053.341000", "113053.344000", "113053.346000", "113053.349000", "113053.352000", "113053.355000", "113053.364000", "113053.367000", "113053.369000", "113053.372000", "113053.375000", "113053.378000", "113113.236000", "113113.239000", "113113.250000", "113113.253000", "113113.256000", "113113.259000", "113113.262000", "113113.265000", "113113.267000", "113113.270000", "113113.273000", "113113.276000", "113113.279000", "113113.282000", "113113.285000", "113113.288000", "113113.291000", "113113.294000", "113113.297000", "113113.299000", "113133.236000", "113133.239000", "113133.242000", "113133.245000", "113133.248000", "113133.250000", "113133.253000", "113133.256000", "113133.259000", "113133.262000", "113133.265000", "113133.268000", "113133.271000", "113133.274000", "113133.277000", "113133.279000", "113133.282000", "113133.285000", "113133.288000", "113133.291000", "113153.236000", "113153.239000", "113153.242000", "113153.245000", "113153.248000", "113153.251000", "113153.254000", "113153.257000", "113153.260000", "113153.263000", "113153.266000", "113153.269000", "113153.271000", "113153.274000", "113153.277000", "113153.280000", "113153.283000", "113153.286000", "113153.289000", "113153.292000", "113233.235000", "113233.238000", "113233.241000", "113233.244000", "113233.247000", "113233.250000", "113233.253000", "113233.255000", "113233.258000", "113233.261000", "113233.268000", "113233.271000", "113233.274000", "113233.277000", "113233.280000", "113233.290000", "113233.293000", "113233.296000", "113233.299000", "113233.301000", "113233.304000", "113233.307000", "113233.310000", "113233.313000", "113233.316000", "113233.319000", "113233.322000", "113233.325000", "113233.328000", "113233.331000", "113233.333000", "113233.336000", "113233.339000", "113313.237000", "113313.240000", "113313.243000", "113313.246000", "113313.249000", "113313.252000", "113313.255000", "113313.258000", "113313.261000", "113313.264000", "113313.267000", "113313.270000", "113313.273000", "113313.276000", "113313.279000", "113313.281000", "113313.284000", "113313.287000", "113313.290000", "113313.293000", "113313.296000", "113313.299000", "113313.302000", "113313.305000", "113313.308000", "113313.311000", "113353.236000", "113353.239000", "113353.242000", "113353.245000", "113353.247000", "113353.250000", "113353.253000", "113353.256000", "113353.259000", "113353.262000", "113353.265000", "113353.268000", "113353.271000", "113353.274000", "113353.277000", "113353.280000", "113353.283000", "113353.285000", "113353.288000", "113353.291000", "113353.294000", "113353.297000", "113353.300000", "113353.303000", "113353.306000", "113353.309000", "113353.312000", "113413.236000", "113413.239000", "113413.242000", "113413.245000", "113413.248000", "113413.251000", "113413.254000", "113413.257000", "113413.260000", "113413.263000", "113413.265000", "113413.268000", "113413.271000", "113413.274000", "113453.235000", "113453.238000", "113453.241000", "113453.244000", "113453.247000", "113453.250000", "113453.253000", "113453.256000", "113453.259000", "113453.262000", "113453.265000", "113453.268000", "113453.270000", "113453.273000", "113453.276000", "113453.279000", "113453.282000", "113453.285000", "113453.288000", "113453.291000", "113453.294000", "113453.297000", "113453.300000", "113453.303000", "113453.305000", "113453.308000", "113453.311000", "113533.236000", "113533.239000", "113533.242000", "113533.245000", "113533.253000", "113533.256000", "113533.259000", "113533.262000", "113533.265000", "113533.268000", "113533.271000", "113533.274000", "113533.277000", "113533.280000", "113533.283000", "113533.286000", "113533.289000", "113533.292000", "113533.295000", "113533.299000", "113533.301000", "113533.304000", "113533.307000", "113533.310000", "113533.313000", "113533.316000", "113613.236000", "113613.239000", "113613.242000", "113613.245000", "113613.248000", "113613.251000", "113613.254000", "113613.257000", "113613.259000", "113613.262000", "113613.265000", "113613.268000", "113613.271000", "113613.274000", "113613.277000", "113613.280000", "113613.283000", "113613.286000", "113613.289000", "113613.292000", "113613.295000", "113613.298000", "113613.301000", "113613.304000", "113613.307000", "113613.310000", "113613.313000", "113653.235000", "113653.238000", "113653.241000", "113653.244000", "113653.247000", "113653.250000", "113653.253000", "113653.256000", "113653.259000", "113653.262000", "113653.265000", "113653.268000", "113653.271000", "113653.273000", "113653.276000", "113653.279000", "113653.282000", "113653.285000", "113653.288000", "113653.291000", "113653.294000", "113653.297000", "113653.300000", "113653.303000", "113653.306000", "113653.309000", "113653.311000", "113733.235000", "113733.238000", "113733.241000", "113733.244000", "113733.247000", "113733.250000", "113733.253000", "113733.255000", "113733.258000", "113733.261000", "113733.264000", "113733.267000", "113733.270000", "113733.273000", "113733.276000", "113733.279000", "113733.282000", "113733.285000", "113733.288000", "113733.291000", "113733.293000", "113733.296000", "113733.299000", "113733.302000", "113733.305000", "113733.308000", "113733.311000", "113813.236000", "113813.239000", "113813.242000", "113813.245000", "113813.248000", "113813.251000", "113813.254000", "113813.256000", "113813.259000", "113813.262000", "113813.265000", "113813.268000", "113813.271000", "113813.274000", "113813.277000", "113813.280000", "113813.283000", "113813.286000", "113813.289000", "113813.292000", "113813.295000", "113813.297000", "113813.300000", "113813.303000", "113813.306000", "113813.309000", "113813.312000", "113853.236000", "113853.239000", "113853.242000", "113853.245000", "113853.248000", "113853.251000", "113853.254000", "113853.257000", "113853.260000", "113853.263000", "113853.265000", "113853.268000", "113853.271000", "113853.274000", "113853.277000", "113853.280000", "113853.283000", "113853.286000", "113853.289000", "113853.292000", "113853.295000", "113853.298000", "113853.301000", "113853.303000", "113853.306000", "113853.309000", "113853.312000", "113933.235000", "113933.238000", "113933.241000", "113933.244000", "113933.247000", "113933.250000", "113933.253000", "113933.256000", "113933.259000", "113933.262000", "113933.265000", "113933.268000", "113933.271000", "113933.274000", "113933.277000", "113933.280000", "113933.283000", "113933.285000", "113933.288000", "113933.291000", "113933.294000", "113933.297000", "113933.300000", "113933.303000", "113933.306000", "113933.309000", "114013.236000", "114013.257000", "114013.260000", "114013.263000", "114013.266000", "114013.269000", "114013.272000", "114013.275000", "114013.277000", "114013.281000", "114013.283000", "114013.286000", "114013.289000", "114013.292000", "114013.295000", "114013.298000", "114013.301000", "114013.304000", "114013.307000", "114013.310000", "114013.313000", "114013.316000", "114013.318000", "114013.321000", "114013.324000", "114013.327000", "114013.330000", "114017.228000", "114017.231000", "114017.242000"],
      "InstanceCreationTime": ["113053.285000", "113053.289000", "113053.292000", "113053.294000", "113053.297000", "113053.300000", "113053.303000", "113053.306000", "113053.317000", "113053.320000", "113053.323000", "113053.326000", "113053.329000", "113053.332000", "113053.335000", "113053.338000", "113053.341000", "113053.344000", "113053.346000", "113053.349000", "113053.352000", "113053.355000", "113053.364000", "113053.367000", "113053.369000", "113053.372000", "113053.375000", "113053.378000", "113113.236000", "113113.239000", "113113.250000", "113113.253000", "113113.256000", "113113.259000", "113113.262000", "113113.265000", "113113.267000", "113113.270000", "113113.273000", "113113.276000", "113113.279000", "113113.282000", "113113.285000", "113113.288000", "113113.291000", "113113.294000", "113113.297000", "113113.299000", "113133.236000", "113133.239000", "113133.242000", "113133.245000", "113133.248000", "113133.250000", "113133.253000", "113133.256000", "113133.259000", "113133.262000", "113133.265000", "113133.268000", "113133.271000", "113133.274000", "113133.277000", "113133.279000", "113133.282000", "113133.285000", "113133.288000", "113133.291000", "113153.236000", "113153.239000", "113153.242000", "113153.245000", "113153.248000", "113153.251000", "113153.254000", "113153.257000", "113153.260000", "113153.263000", "113153.266000", "113153.269000", "113153.271000", "113153.274000", "113153.277000", "113153.280000", "113153.283000", "113153.286000", "113153.289000", "113153.292000", "113233.235000", "113233.238000", "113233.241000", "113233.244000", "113233.247000", "113233.250000", "113233.253000", "113233.255000", "113233.258000", "113233.261000", "113233.268000", "113233.271000", "113233.274000", "113233.277000", "113233.280000", "113233.290000", "113233.293000", "113233.296000", "113233.299000", "113233.301000", "113233.304000", "113233.307000", "113233.310000", "113233.313000", "113233.316000", "113233.319000", "113233.322000", "113233.325000", "113233.328000", "113233.331000", "113233.333000", "113233.336000", "113233.339000", "113313.237000", "113313.240000", "113313.243000", "113313.246000", "113313.249000", "113313.252000", "113313.255000", "113313.258000", "113313.261000", "113313.264000", "113313.267000", "113313.270000", "113313.273000", "113313.276000", "113313.279000", "113313.281000", "113313.284000", "113313.287000", "113313.290000", "113313.293000", "113313.296000", "113313.299000", "113313.302000", "113313.305000", "113313.308000", "113313.311000", "113353.236000", "113353.239000", "113353.242000", "113353.245000", "113353.247000", "113353.250000", "113353.253000", "113353.256000", "113353.259000", "113353.262000", "113353.265000", "113353.268000", "113353.271000", "113353.274000", "113353.277000", "113353.280000", "113353.283000", "113353.285000", "113353.288000", "113353.291000", "113353.294000", "113353.297000", "113353.300000", "113353.303000", "113353.306000", "113353.309000", "113353.312000", "113413.236000", "113413.239000", "113413.242000", "113413.245000", "113413.248000", "113413.251000", "113413.254000", "113413.257000", "113413.260000", "113413.263000", "113413.265000", "113413.268000", "113413.271000", "113413.274000", "113453.235000", "113453.238000", "113453.241000", "113453.244000", "113453.247000", "113453.250000", "113453.253000", "113453.256000", "113453.259000", "113453.262000", "113453.265000", "113453.268000", "113453.270000", "113453.273000", "113453.276000", "113453.279000", "113453.282000", "113453.285000", "113453.288000", "113453.291000", "113453.294000", "113453.297000", "113453.300000", "113453.303000", "113453.305000", "113453.308000", "113453.311000", "113533.236000", "113533.239000", "113533.242000", "113533.245000", "113533.253000", "113533.256000", "113533.259000", "113533.262000", "113533.265000", "113533.268000", "113533.271000", "113533.274000", "113533.277000", "113533.280000", "113533.283000", "113533.286000", "113533.289000", "113533.292000", "113533.295000", "113533.299000", "113533.301000", "113533.304000", "113533.307000", "113533.310000", "113533.313000", "113533.316000", "113613.236000", "113613.239000", "113613.242000", "113613.245000", "113613.248000", "113613.251000", "113613.254000", "113613.257000", "113613.259000", "113613.262000", "113613.265000", "113613.268000", "113613.271000", "113613.274000", "113613.277000", "113613.280000", "113613.283000", "113613.286000", "113613.289000", "113613.292000", "113613.295000", "113613.298000", "113613.301000", "113613.304000", "113613.307000", "113613.310000", "113613.313000", "113653.235000", "113653.238000", "113653.241000", "113653.244000", "113653.247000", "113653.250000", "113653.253000", "113653.256000", "113653.259000", "113653.262000", "113653.265000", "113653.268000", "113653.271000", "113653.273000", "113653.276000", "113653.279000", "113653.282000", "113653.285000", "113653.288000", "113653.291000", "113653.294000", "113653.297000", "113653.300000", "113653.303000", "113653.306000", "113653.309000", "113653.311000", "113733.235000", "113733.238000", "113733.241000", "113733.244000", "113733.247000", "113733.250000", "113733.253000", "113733.255000", "113733.258000", "113733.261000", "113733.264000", "113733.267000", "113733.270000", "113733.273000", "113733.276000", "113733.279000", "113733.282000", "113733.285000", "113733.288000", "113733.291000", "113733.293000", "113733.296000", "113733.299000", "113733.302000", "113733.305000", "113733.308000", "113733.311000", "113813.236000", "113813.239000", "113813.242000", "113813.245000", "113813.248000", "113813.251000", "113813.254000", "113813.256000", "113813.259000", "113813.262000", "113813.265000", "113813.268000", "113813.271000", "113813.274000", "113813.277000", "113813.280000", "113813.283000", "113813.286000", "113813.289000", "113813.292000", "113813.295000", "113813.297000", "113813.300000", "113813.303000", "113813.306000", "113813.309000", "113813.312000", "113853.236000", "113853.239000", "113853.242000", "113853.245000", "113853.248000", "113853.251000", "113853.254000", "113853.257000", "113853.260000", "113853.263000", "113853.265000", "113853.268000", "113853.271000", "113853.274000", "113853.277000", "113853.280000", "113853.283000", "113853.286000", "113853.289000", "113853.292000", "113853.295000", "113853.298000", "113853.301000", "113853.303000", "113853.306000", "113853.309000", "113853.312000", "113933.235000", "113933.238000", "113933.241000", "113933.244000", "113933.247000", "113933.250000", "113933.253000", "113933.256000", "113933.259000", "113933.262000", "113933.265000", "113933.268000", "113933.271000", "113933.274000", "113933.277000", "113933.280000", "113933.283000", "113933.285000", "113933.288000", "113933.291000", "113933.294000", "113933.297000", "113933.300000", "113933.303000", "113933.306000", "113933.309000", "114013.236000", "114013.257000", "114013.260000", "114013.263000", "114013.266000", "114013.269000", "114013.272000", "114013.275000", "114013.277000", "114013.281000", "114013.283000", "114013.286000", "114013.289000", "114013.292000", "114013.295000", "114013.298000", "114013.301000", "114013.304000", "114013.307000", "114013.310000", "114013.313000", "114013.316000", "114013.318000", "114013.321000", "114013.324000", "114013.327000", "114013.330000", "114017.228000", "114017.231000", "114017.242000"],
