{
  "AcquisitionMatrixPE": 104,
  "AcquisitionNumber": 1,
  "AcquisitionTime": "11:23:14.067500",
  "BandwidthPerPixelPhaseEncode": 17.17,
  "BaseResolution": 104,
  "BodyPartExamined": "BRAIN",
  "CoilString": "HC1-7;NC1_2",
  "ConsistencyInfo": "N4_VE11C_LATEST_20160120",
  "ConversionSoftware": "dcm2niix",
  "ConversionSoftwareVersion": "v1.0.20190902",
  "DerivedVendorReportedEchoSpacing": 0.000560011,
  "DeviceSerialNumber": "167006",
  "DwellTime": 2.1e-06,
  "EchoTime": 0.037,
  "EchoTrainLength": 104,
  "EffectiveEchoSpacing": 0.000560011,
  "FlipAngle": 52,
  "ImageComments": "Unaliased_MB4_PE3_LB",
  "ImageOrientationPatientDICOM": [0.999406, 0.0315878, 0.0137583, -0.0207601, 0.870784, -0.491227],
  "ImageType": [
    "ORIGINAL",
    "PRIMARY",
    "M",
    "MB",
    "ND",
    "MOSAIC"
],
  "ImagingFrequency": 123.259,
  "InPlanePhaseEncodingDirectionDICOM": "COL",
  "InstitutionAddress": "Chemin_Queen-Mary_4565_Montreal_District_CA_H3W_1W5",
  "InstitutionName": "IUGM",
  "InstitutionalDepartmentName": "Department",
  "MRAcquisitionType": "2D",
  "MagneticFieldStrength": 3,
  "Manufacturer": "Siemens",
  "ManufacturersModelName": "Prisma_fit",
  "Modality": "MR",
  "MultibandAccelerationFactor": 4,
  "PartialFourier": 1,
  "PatientPosition": "HFS",
  "PercentPhaseFOV": 100,
  "PhaseEncodingDirection": "j",
  "PhaseEncodingSteps": 104,
  "PhaseResolution": 1,
  "PixelBandwidth": 2290,
  "ProcedureStepDescription": "games_shinobi",
  "ProtocolName": "func_task-shinobi_run-4",
  "PulseSequenceDetails": "%CustomerSeq%_cmrr_mbep2d_bold",
  "ReceiveCoilActiveElements": "HC1-7;NC1,2",
  "ReceiveCoilName": "HeadNeck_64",
  "ReconMatrixPE": 104,
  "RepetitionTime": 1.49,
  "SAR": 0.0347402,
  "ScanOptions": "FS",
  "ScanningSequence": "EP",
  "SequenceName": "epfid2d1_104",
  "SequenceVariant": "SK_SS",
  "SeriesDescription": "func_task-shinobi_run-4",
  "SeriesNumber": 15,
  "ShimSetting": [620, -7209, -8871, 366, -11, -161, 0, -18],
  "SliceThickness": 2,
  "SliceTiming": [0, 0.7825, 0.0975, 0.8825, 0.195, 0.98, 0.2925, 1.0775, 0.3925, 1.175, 0.49, 1.2725, 0.5875, 1.3725, 0.685, 0, 0.7825, 0.0975, 0.8825, 0.195, 0.98, 0.2925, 1.0775, 0.3925, 1.175, 0.49, 1.2725, 0.5875, 1.3725, 0.685, 0, 0.7825, 0.0975, 0.8825, 0.195, 0.98, 0.2925, 1.0775, 0.3925, 1.175, 0.49, 1.2725, 0.5875, 1.3725, 0.685, 0, 0.7825, 0.0975, 0.8825, 0.195, 0.98, 0.2925, 1.0775, 0.3925, 1.175, 0.49, 1.2725, 0.5875, 1.3725, 0.685],
  "SoftwareVersions": "syngo_MR_E11",
  "SpacingBetweenSlices": 2,
  "StationName": "MRC35049",
  "TaskName": "shinobi",
  "TotalReadoutTime": 0.0576811,
  "TxRefAmp": 245.613,
  "WipMemBlock": "e5cb86cf-7705-4857-99ff-015376c71fe2||Sequence: R016 ve11c/master r/e634e98; Dec 19 2017 11:00:25 by eja",
  "dcmmeta_affine": [
    [-1.9988125562667847, -0.04152011498808861, 0.05499466508626938, 107.92643737792969],
    [-0.06317569315433502, 1.7415679693222046, -0.9812999963760376, -49.00172805786133],
    [0.02751663140952587, 0.9824545383453369, 1.7418454885482788, -87.7639389038086],
    [0.0, 0.0, 0.0, 1.0]
],
  "dcmmeta_reorient_transform": [
    [0.0, -1.0, 0.0, 103.0],
    [1.0, 0.0, 0.0, 0.0],
    [0.0, 0.0, 1.0, 0.0],
    [0.0, 0.0, 0.0, 1.0]
],
  "dcmmeta_shape": [104, 104, 60, 455],
  "dcmmeta_slice_dim": 2,
  "dcmmeta_version": 0.6,
  "global": {
    "const": {
      "AcquisitionMatrix": [104, 0, 0, 104],
      "AngioFlag": "N",
      "BitsAllocated": 16,
      "BitsStored": 16,
      "BodyPartExamined": "BRAIN",
      "Columns": 832,
      "EchoNumbers": 1,
      "EchoTime": 37.0,
      "EchoTrainLength": 104,
      "FlipAngle": 52.0,
      "HighBit": 15,
      "ImageOrientationPatient": [0.99940628206881, 0.03158784767569, 0.01375831532617, -0.020760058334, 0.87078400438804, -0.4912272770113],
      "ImagePositionPatient": [-816.10431273035, -787.30648485989, 361.02628229266],
      "ImageType": [
        "ORIGINAL",
        "PRIMARY",
        "M",
        "MB",
        "ND",
        "MOSAIC"
],
      "ImagedNucleus": "1H",
      "ImagingFrequency": 123.259094,
      "InPlanePhaseEncodingDirection": "COL",
      "MRAcquisitionType": "2D",
      "MagneticFieldStrength": 3.0,
      "Manufacturer": "SIEMENS",
      "ManufacturerModelName": "Prisma_fit",
      "Modality": "MR",
      "NumberOfAverages": 1.0,
      "NumberOfPhaseEncodingSteps": 104,
      "PercentPhaseFieldOfView": 100.0,
      "PercentSampling": 100.0,
      "PerformedProcedureStepStartTime": "103623.016000",
      "PhotometricInterpretation": "MONOCHROME2",
      "PixelBandwidth": 2290.0,
      "PixelRepresentation": 0,
      "PixelSpacing": [2.0, 2.0],
      "ProtocolName": "func_task-shinobi_run-4",
      "RepetitionTime": 1490.0,
      "Rows": 832,
      "SAR": 0.03474022641873,
      "SamplesPerPixel": 1,
      "ScanOptions": "FS",
      "ScanningSequence": "EP",
      "SequenceName": "epfid2d1_104",
      "SequenceVariant": [
        "SK",
        "SS"
],
      "SeriesDescription": "func_task-shinobi_run-4",
      "SeriesNumber": 15,
      "SeriesTime": "112444.274000",
      "SliceLocation": -49.425227192136,
      "SliceThickness": 2.0,
      "SmallestImagePixelValue": 0,
      "SoftwareVersions": "syngo MR E11",
      "SpacingBetweenSlices": 1.9999999928349,
      "SpecificCharacterSet": "ISO_IR 100",
      "StudyID": "1",
      "StudyTime": "103622.936000",
      "TransmitCoilName": "Body",
      "VariableFlipAngleFlag": "N",
      "WindowCenterWidthExplanation": "Algo1",
      "dBdt": 0.0},
    "slices": {}
  },
  "time": {
    "samples": {
      "AcquisitionNumber": [1, 2, 3, 4, 5, 6, 7, 8, 9, 10, 11, 12, 13, 14, 15, 16, 17, 18, 19, 20, 21, 22, 23, 24, 25, 26, 27, 28, 29, 30, 31, 32, 33, 34, 35, 36, 37, 38, 39, 40, 41, 42, 43, 44, 45, 46, 47, 48, 49, 50, 51, 52, 53, 54, 55, 56, 57, 58, 59, 60, 61, 62, 63, 64, 65, 66, 67, 68, 69, 70, 71, 72, 73, 74, 75, 76, 77, 78, 79, 80, 81, 82, 83, 84, 85, 86, 87, 88, 89, 90, 91, 92, 93, 94, 95, 96, 97, 98, 99, 100, 101, 102, 103, 104, 105, 106, 107, 108, 109, 110, 111, 112, 113, 114, 115, 116, 117, 118, 119, 120, 121, 122, 123, 124, 125, 126, 127, 128, 129, 130, 131, 132, 133, 134, 135, 136, 137, 138, 139, 140, 141, 142, 143, 144, 145, 146, 147, 148, 149, 150, 151, 152, 153, 154, 155, 156, 157, 158, 159, 160, 161, 162, 163, 164, 165, 166, 167, 168, 169, 170, 171, 172, 173, 174, 175, 176, 177, 178, 179, 180, 181, 182, 183, 184, 185, 186, 187, 188, 189, 190, 191, 192, 193, 194, 195, 196, 197, 198, 199, 200, 201, 202, 203, 204, 205, 206, 207, 208, 209, 210, 211, 212, 213, 214, 215, 216, 217, 218, 219, 220, 221, 222, 223, 224, 225, 226, 227, 228, 229, 230, 231, 232, 233, 234, 235, 236, 237, 238, 239, 240, 241, 242, 243, 244, 245, 246, 247, 248, 249, 250, 251, 252, 253, 254, 255, 256, 257, 258, 259, 260, 261, 262, 263, 264, 265, 266, 267, 268, 269, 270, 271, 272, 273, 274, 275, 276, 277, 278, 279, 280, 281, 282, 283, 284, 285, 286, 287, 288, 289, 290, 291, 292, 293, 294, 295, 296, 297, 298, 299, 300, 301, 302, 303, 304, 305, 306, 307, 308, 309, 310, 311, 312, 313, 314, 315, 316, 317, 318, 319, 320, 321, 322, 323, 324, 325, 326, 327, 328, 329, 330, 331, 332, 333, 334, 335, 336, 337, 338, 339, 340, 341, 342, 343, 344, 345, 346, 347, 348, 349, 350, 351, 352, 353, 354, 355, 356, 357, 358, 359, 360, 361, 362, 363, 364, 365, 366, 367, 368, 369, 370, 371, 372, 373, 374, 375, 376, 377, 378, 379, 380, 381, 382, 383, 384, 385, 386, 387, 388, 389, 390, 391, 392, 393, 394, 395, 396, 397, 398, 399, 400, 401, 402, 403, 404, 405, 406, 407, 408, 409, 410, 411, 412, 413, 414, 415, 416, 417, 418, 419, 420, 421, 422, 423, 424, 425, 426, 427, 428, 429, 430, 431, 432, 433, 434, 435, 436, 437, 438, 439, 440, 441, 442, 443, 444, 445, 446, 447, 448, 449, 450, 451, 452, 453, 454, 455],
      "AcquisitionTime": ["112314.067500", "112315.557500", "112317.047500", "112318.537500", "112320.027500", "112321.517500", "112323.007500", "112324.497500", "112325.987500", "112327.477500", "112328.967500", "112330.457500", "112331.947500", "112333.437500", "112334.927500", "112336.417500", "112337.907500", "112339.397500", "112340.887500", "112342.377500", "112343.867500", "112345.357500", "112346.847500", "112348.337500", "112349.827500", "112351.317500", "112352.807500", "112354.297500", "112355.787500", "112357.277500", "112358.767500", "112400.257500", "112401.747500", "112403.237500", "112404.727500", "112406.217500", "112407.707500", "112409.197500", "112410.687500", "112412.177500", "112413.667500", "112415.157500", "112416.647500", "112418.137500", "112419.627500", "112421.117500", "112422.607500", "112424.097500", "112425.587500", "112427.077500", "112428.567500", "112430.057500", "112431.547500", "112433.037500", "112434.527500", "112436.017500", "112437.507500", "112438.997500", "112440.487500", "112441.977500", "112443.467500", "112444.957500", "112446.447500", "112447.937500", "112449.427500", "112450.917500", "112452.407500", "112453.897500", "112455.387500", "112456.877500", "112458.367500", "112459.857500", "112501.347500", "112502.837500", "112504.327500", "112505.817500", "112507.307500", "112508.797500", "112510.287500", "112511.777500", "112513.267500", "112514.757500", "112516.247500", "112517.737500", "112519.227500", "112520.717500", "112522.207500", "112523.697500", "112525.187500", "112526.677500", "112528.167500", "112529.657500", "112531.147500", "112532.637500", "112534.127500", "112535.617500", "112537.107500", "112538.597500", "112540.087500", "112541.577500", "112543.067500", "112544.557500", "112546.047500", "112547.537500", "112549.027500", "112550.517500", "112552.007500", "112553.497500", "112554.987500", "112556.477500", "112557.967500", "112559.457500", "112600.947500", "112602.437500", "112603.927500", "112605.417500", "112606.907500", "112608.397500", "112609.887500", "112611.377500", "112612.867500", "112614.357500", "112615.847500", "112617.337500", "112618.827500", "112620.317500", "112621.807500", "112623.297500", "112624.787500", "112626.277500", "112627.767500", "112629.257500", "112630.747500", "112632.237500", "112633.727500", "112635.217500", "112636.707500", "112638.197500", "112639.687500", "112641.177500", "112642.667500", "112644.157500", "112645.647500", "112647.137500", "112648.627500", "112650.117500", "112651.607500", "112653.097500", "112654.587500", "112656.077500", "112657.567500", "112659.057500", "112700.547500", "112702.037500", "112703.527500", "112705.017500", "112706.507500", "112707.997500", "112709.487500", "112710.977500", "112712.467500", "112713.957500", "112715.447500", "112716.937500", "112718.427500", "112719.917500", "112721.407500", "112722.897500", "112724.387500", "112725.877500", "112727.367500", "112728.857500", "112730.347500", "112731.837500", "112733.327500", "112734.817500", "112736.307500", "112737.797500", "112739.287500", "112740.777500", "112742.267500", "112743.757500", "112745.247500", "112746.737500", "112748.227500", "112749.717500", "112751.207500", "112752.697500", "112754.187500", "112755.677500", "112757.167500", "112758.657500", "112800.147500", "112801.637500", "112803.127500", "112804.617500", "112806.107500", "112807.597500", "112809.087500", "112810.577500", "112812.067500", "112813.557500", "112815.047500", "112816.537500", "112818.027500", "112819.517500", "112821.007500", "112822.497500", "112823.987500", "112825.477500", "112826.967500", "112828.457500", "112829.947500", "112831.437500", "112832.927500", "112834.417500", "112835.907500", "112837.397500", "112838.887500", "112840.377500", "112841.867500", "112843.357500", "112844.847500", "112846.337500", "112847.827500", "112849.317500", "112850.807500", "112852.297500", "112853.787500", "112855.277500", "112856.767500", "112858.257500", "112859.747500", "112901.237500", "112902.727500", "112904.217500", "112905.707500", "112907.197500", "112908.687500", "112910.177500", "112911.667500", "112913.157500", "112914.647500", "112916.137500", "112917.627500", "112919.117500", "112920.607500", "112922.097500", "112923.587500", "112925.077500", "112926.567500", "112928.057500", "112929.547500", "112931.037500", "112932.527500", "112934.017500", "112935.507500", "112936.997500", "112938.487500", "112939.977500", "112941.467500", "112942.957500", "112944.447500", "112945.937500", "112947.427500", "112948.917500", "112950.407500", "112951.897500", "112953.387500", "112954.877500", "112956.367500", "112957.857500", "112959.347500", "113000.837500", "113002.327500", "113003.817500", "113005.307500", "113006.797500", "113008.287500", "113009.777500", "113011.267500", "113012.757500", "113014.247500", "113015.737500", "113017.227500", "113018.717500", "113020.207500", "113021.697500", "113023.187500", "113024.677500", "113026.167500", "113027.657500", "113029.147500", "113030.637500", "113032.127500", "113033.617500", "113035.107500", "113036.597500", "113038.087500", "113039.577500", "113041.067500", "113042.557500", "113044.047500", "113045.537500", "113047.027500", "113048.517500", "113050.007500", "113051.497500", "113052.987500", "113054.477500", "113055.967500", "113057.457500", "113058.947500", "113100.437500", "113101.927500", "113103.417500", "113104.907500", "113106.397500", "113107.887500", "113109.377500", "113110.867500", "113112.357500", "113113.847500", "113115.337500", "113116.827500", "113118.317500", "113119.807500", "113121.297500", "113122.787500", "113124.277500", "113125.767500", "113127.257500", "113128.747500", "113130.237500", "113131.727500", "113133.217500", "113134.707500", "113136.197500", "113137.687500", "113139.177500", "113140.667500", "113142.157500", "113143.647500", "113145.137500", "113146.627500", "113148.117500", "113149.607500", "113151.097500", "113152.587500", "113154.077500", "113155.567500", "113157.057500", "113158.547500", "113200.037500", "113201.527500", "113203.017500", "113204.507500", "113205.997500", "113207.487500", "113208.977500", "113210.467500", "113211.957500", "113213.447500", "113214.937500", "113216.427500", "113217.917500", "113219.407500", "113220.897500", "113222.387500", "113223.877500", "113225.367500", "113226.857500", "113228.347500", "113229.837500", "113231.327500", "113232.817500", "113234.307500", "113235.797500", "113237.287500", "113238.777500", "113240.267500", "113241.757500", "113243.247500", "113244.737500", "113246.227500", "113247.717500", "113249.207500", "113250.697500", "113252.187500", "113253.677500", "113255.167500", "113256.657500", "113258.147500", "113259.637500", "113301.127500", "113302.617500", "113304.107500", "113305.597500", "113307.087500", "113308.577500", "113310.067500", "113311.557500", "113313.047500", "113314.537500", "113316.027500", "113317.517500", "113319.007500", "113320.497500", "113321.987500", "113323.477500", "113324.967500", "113326.457500", "113327.947500", "113329.437500", "113330.927500", "113332.417500", "113333.907500", "113335.397500", "113336.887500", "113338.377500", "113339.867500", "113341.357500", "113342.847500", "113344.337500", "113345.827500", "113347.317500", "113348.807500", "113350.297500", "113351.787500", "113353.277500", "113354.767500", "113356.257500", "113357.747500", "113359.237500", "113400.727500", "113402.217500", "113403.707500", "113405.197500", "113406.687500", "113408.177500", "113409.667500", "113411.157500", "113412.647500", "113414.137500", "113415.627500", "113417.117500", "113418.607500", "113420.097500", "113421.587500", "113423.077500", "113424.567500", "113426.057500", "113427.547500", "113429.037500", "113430.527500"],
      "ContentTime": ["112444.277000", "112444.280000", "112444.283000", "112444.286000", "112444.289000", "112444.291000", "112444.294000", "112444.297000", "112444.303000", "112444.306000", "112444.308000", "112444.312000", "112444.321000", "112444.323000", "112444.326000", "112444.329000", "112444.332000", "112444.335000", "112444.338000", "112444.341000", "112444.344000", "112444.353000", "112444.356000", "112444.359000", "112444.361000", "112444.364000", "112444.367000", "112444.370000", "112444.373000", "112444.375000", "112444.378000", "112444.381000", "112444.384000", "112444.387000", "112444.390000", "112444.393000", "112504.245000", "112504.248000", "112504.251000", "112504.260000", "112504.263000", "112504.266000", "112504.268000", "112504.271000", "112504.274000", "112504.277000", "112504.280000", "112504.282000", "112504.285000", "112504.288000", "112504.291000", "112504.294000", "112504.297000", "112504.300000", "112504.302000", "112504.305000", "112504.308000", "112524.245000", "112524.248000", "112524.251000", "112524.253000", "112524.256000", "112524.259000", "112524.262000", "112524.265000", "112524.268000", "112524.271000", "112524.273000", "112524.276000", "112524.279000", "112524.282000", "112524.285000", "112524.288000", "112524.290000", "112524.293000", "112524.296000", "112524.299000", "112544.245000", "112544.248000", "112544.251000", "112544.253000", "112544.256000", "112544.259000", "112544.262000", "112544.265000", "112544.268000", "112544.271000", "112544.273000", "112544.276000", "112544.279000", "112544.282000", "112544.285000", "112544.288000", "112544.302000", "112544.305000", "112544.308000", "112544.311000", "112624.245000", "112624.248000", "112624.251000", "112624.254000", "112624.257000", "112624.259000", "112624.262000", "112624.265000", "112624.268000", "112624.271000", "112624.274000", "112624.276000", "112624.280000", "112624.282000", "112624.285000", "112624.288000", "112624.291000", "112624.294000", "112624.297000", "112624.299000", "112624.302000", "112624.305000", "112624.316000", "112624.319000", "112624.322000", "112624.324000", "112624.327000", "112624.330000", "112624.333000", "112624.340000", "112704.245000", "112704.248000", "112704.251000", "112704.254000", "112704.257000", "112704.259000", "112704.262000", "112704.265000", "112704.268000", "112704.271000", "112704.274000", "112704.277000", "112704.279000", "112704.282000", "112704.285000", "112704.288000", "112704.291000", "112704.294000", "112704.297000", "112704.300000", "112704.303000", "112704.306000", "112704.309000", "112704.312000", "112704.315000", "112704.317000", "112744.245000", "112744.248000", "112744.251000", "112744.254000", "112744.257000", "112744.266000", "112744.269000", "112744.272000", "112744.275000", "112744.278000", "112744.281000", "112744.284000", "112744.286000", "112744.289000", "112744.292000", "112744.295000", "112744.298000", "112744.301000", "112744.304000", "112744.306000", "112744.309000", "112744.312000", "112744.315000", "112744.318000", "112744.321000", "112744.324000", "112744.326000", "112824.245000", "112824.248000", "112824.251000", "112824.254000", "112824.257000", "112824.260000", "112824.262000", "112824.265000", "112824.268000", "112824.271000", "112824.274000", "112824.277000", "112824.280000", "112824.283000", "112824.285000", "112824.288000", "112824.291000", "112824.294000", "112824.305000", "112824.307000", "112824.310000", "112824.313000", "112824.316000", "112824.319000", "112824.322000", "112824.325000", "112824.328000", "112904.245000", "112904.248000", "112904.251000", "112904.254000", "112904.257000", "112904.259000", "112904.262000", "112904.265000", "112904.268000", "112904.271000", "112904.274000", "112904.277000", "112904.279000", "112904.282000", "112904.285000", "112904.288000", "112904.291000", "112904.294000", "112904.296000", "112904.299000", "112904.302000", "112904.305000", "112904.308000", "112904.311000", "112904.314000", "112904.317000", "112904.319000", "112944.244000", "112944.247000", "112944.250000", "112944.253000", "112944.256000", "112944.258000", "112944.261000", "112944.264000", "112944.267000", "112944.270000", "112944.273000", "112944.276000", "112944.279000", "112944.281000", "112944.284000", "112944.287000", "112944.290000", "112944.293000", "112944.295000", "112944.299000", "112944.301000", "112944.304000", "112944.307000", "112944.310000", "112944.313000", "112944.316000", "112944.319000", "113024.245000", "113024.248000", "113024.251000", "113024.254000", "113024.257000", "113024.260000", "113024.263000", "113024.265000", "113024.268000", "113024.271000", "113024.274000", "113024.277000", "113024.280000", "113024.283000", "113024.286000", "113024.289000", "113024.291000", "113024.294000", "113024.297000", "113024.300000", "113024.303000", "113024.306000", "113024.309000", "113024.311000", "113024.314000", "113024.317000", "113024.320000", "113104.245000", "113104.248000", "113104.251000", "113104.254000", "113104.257000", "113104.259000", "113104.262000", "113104.265000", "113104.268000", "113104.271000", "113104.274000", "113104.277000", "113104.280000", "113104.282000", "113104.285000", "113104.293000", "113104.296000", "113104.299000", "113104.301000", "113104.304000", "113104.307000", "113104.310000", "113104.313000", "113104.316000", "113104.319000", "113104.322000", "113144.245000", "113144.248000", "113144.251000", "113144.254000", "113144.257000", "113144.259000", "113144.262000", "113144.265000", "113144.268000", "113144.271000", "113144.274000", "113144.277000", "113144.280000", "113144.283000", "113144.285000", "113144.288000", "113144.291000", "113144.294000", "113144.297000", "113144.300000", "113144.303000", "113144.305000", "113144.308000", "113144.311000", "113144.314000", "113144.317000", "113144.320000", "113224.245000", "113224.248000", "113224.251000", "113224.254000", "113224.257000", "113224.260000", "113224.263000", "113224.265000", "113224.268000", "113224.271000", "113224.274000", "113224.277000", "113224.280000", "113224.283000", "113224.286000", "113224.288000", "113224.291000", "113224.294000", "113224.297000", "113224.300000", "113224.303000", "113224.306000", "113224.309000", "113224.312000", "113224.314000", "113224.317000", "113224.320000", "113304.245000", "113304.248000", "113304.251000", "113304.254000", "113304.257000", "113304.260000", "113304.262000", "113304.265000", "113304.268000", "113304.271000", "113304.274000", "113304.277000", "113304.280000", "113304.283000", "113304.285000", "113304.288000", "113304.291000", "113304.294000", "113304.297000", "113304.300000", "113304.303000", "113304.306000", "113304.308000", "113304.311000", "113304.314000", "113304.317000", "113304.320000", "113344.245000", "113344.248000", "113344.251000", "113344.254000", "113344.257000", "113344.260000", "113344.262000", "113344.265000", "113344.268000", "113344.271000", "113344.274000", "113344.277000", "113344.280000", "113344.282000", "113344.285000", "113344.288000", "113344.291000", "113344.294000", "113344.297000", "113344.300000", "113344.303000", "113344.305000", "113344.308000", "113344.311000", "113344.314000", "113344.317000", "113344.320000", "113424.244000", "113424.247000", "113424.250000", "113424.253000", "113424.256000", "113424.259000", "113424.261000", "113424.264000", "113424.267000", "113424.270000", "113424.273000", "113424.276000", "113424.279000", "113424.282000", "113424.284000", "113424.287000", "113424.290000", "113424.293000", "113424.296000", "113424.299000", "113424.301000", "113424.304000", "113424.307000", "113424.310000", "113424.313000", "113424.316000", "113424.319000", "113434.130000", "113434.133000", "113434.136000", "113434.139000", "113434.142000", "113434.146000"],
