{
  "AcquisitionMatrixPE": 104,
  "AcquisitionNumber": 1,
  "AcquisitionTime": "11:35:35.867500",
  "BandwidthPerPixelPhaseEncode": 17.17,
  "BaseResolution": 104,
  "BodyPartExamined": "BRAIN",
  "CoilString": "HC1-7;NC1_2",
  "ConsistencyInfo": "N4_VE11C_LATEST_20160120",
  "ConversionSoftware": "dcm2niix",
  "ConversionSoftwareVersion": "v1.0.20190902",
  "DerivedVendorReportedEchoSpacing": 0.000560011,
  "DeviceSerialNumber": "167006",
  "DwellTime": 2.1e-06,
  "EchoTime": 0.037,
  "EchoTrainLength": 104,
  "EffectiveEchoSpacing": 0.000560011,
  "FlipAngle": 52,
  "ImageComments": "Unaliased_MB4_PE3_LB",
  "ImageOrientationPatientDICOM": [0.999406, 0.0315878, 0.0137583, -0.0207601, 0.870784, -0.491227],
  "ImageType": [
    "ORIGINAL",
    "PRIMARY",
    "M",
    "MB",
    "ND",
    "MOSAIC"
],
  "ImagingFrequency": 123.259,
  "InPlanePhaseEncodingDirectionDICOM": "COL",
  "InstitutionAddress": "Chemin_Queen-Mary_4565_Montreal_District_CA_H3W_1W5",
  "InstitutionName": "IUGM",
  "InstitutionalDepartmentName": "Department",
  "MRAcquisitionType": "2D",
  "MagneticFieldStrength": 3,
  "Manufacturer": "Siemens",
  "ManufacturersModelName": "Prisma_fit",
  "Modality": "MR",
  "MultibandAccelerationFactor": 4,
  "PartialFourier": 1,
  "PatientPosition": "HFS",
  "PercentPhaseFOV": 100,
  "PhaseEncodingDirection": "j",
  "PhaseEncodingSteps": 104,
  "PhaseResolution": 1,
  "PixelBandwidth": 2290,
  "ProcedureStepDescription": "games_shinobi",
  "ProtocolName": "func_task-shinobi_run-5",
  "PulseSequenceDetails": "%CustomerSeq%_cmrr_mbep2d_bold",
  "ReceiveCoilActiveElements": "HC1-7;NC1,2",
  "ReceiveCoilName": "HeadNeck_64",
  "ReconMatrixPE": 104,
  "RepetitionTime": 1.49,
  "SAR": 0.0347402,
  "ScanOptions": "FS",
  "ScanningSequence": "EP",
  "SequenceName": "epfid2d1_104",
  "SequenceVariant": "SK_SS",
  "SeriesDescription": "func_task-shinobi_run-5",
  "SeriesNumber": 17,
  "ShimSetting": [620, -7209, -8871, 366, -11, -161, 0, -18],
  "SliceThickness": 2,
  "SliceTiming": [0, 0.7825, 0.0975, 0.8825, 0.195, 0.98, 0.2925, 1.0775, 0.3925, 1.175, 0.49, 1.2725, 0.5875, 1.3725, 0.685, 0, 0.7825, 0.0975, 0.8825, 0.195, 0.98, 0.2925, 1.0775, 0.3925, 1.175, 0.49, 1.2725, 0.5875, 1.3725, 0.685, 0, 0.7825, 0.0975, 0.8825, 0.195, 0.98, 0.2925, 1.0775, 0.3925, 1.175, 0.49, 1.2725, 0.5875, 1.3725, 0.685, 0, 0.7825, 0.0975, 0.8825, 0.195, 0.98, 0.2925, 1.0775, 0.3925, 1.175, 0.49, 1.2725, 0.5875, 1.3725, 0.685],
  "SoftwareVersions": "syngo_MR_E11",
  "SpacingBetweenSlices": 2,
  "StationName": "MRC35049",
  "TaskName": "shinobi",
  "TotalReadoutTime": 0.0576811,
  "TxRefAmp": 245.613,
  "WipMemBlock": "9d1969e5-b2d3-49b1-a6c2-eaf06857a4e0||Sequence: R016 ve11c/master r/e634e98; Dec 19 2017 11:00:25 by eja",
  "dcmmeta_affine": [
    [-1.9988125562667847, -0.04152011498808861, 0.05499466508626938, 107.92643737792969],
    [-0.06317569315433502, 1.7415679693222046, -0.9812999963760376, -49.00172805786133],
    [0.02751663140952587, 0.9824545383453369, 1.7418454885482788, -87.7639389038086],
    [0.0, 0.0, 0.0, 1.0]
],
  "dcmmeta_reorient_transform": [
    [0.0, -1.0, 0.0, 103.0],
    [1.0, 0.0, 0.0, 0.0],
    [0.0, 0.0, 1.0, 0.0],
    [0.0, 0.0, 0.0, 1.0]
],
  "dcmmeta_shape": [104, 104, 60, 468],
  "dcmmeta_slice_dim": 2,
  "dcmmeta_version": 0.6,
  "global": {
    "const": {
      "AcquisitionMatrix": [104, 0, 0, 104],
      "AngioFlag": "N",
      "BitsAllocated": 16,
      "BitsStored": 16,
      "BodyPartExamined": "BRAIN",
      "Columns": 832,
      "EchoNumbers": 1,
      "EchoTime": 37.0,
      "EchoTrainLength": 104,
      "FlipAngle": 52.0,
      "HighBit": 15,
      "ImageOrientationPatient": [0.99940628206881, 0.03158784767569, 0.01375831532617, -0.020760058334, 0.87078400438804, -0.4912272770113],
      "ImagePositionPatient": [-816.10431273035, -787.30648485989, 361.02628229266],
      "ImageType": [
        "ORIGINAL",
        "PRIMARY",
        "M",
        "MB",
        "ND",
        "MOSAIC"
],
      "ImagedNucleus": "1H",
      "ImagingFrequency": 123.25909,
      "InPlanePhaseEncodingDirection": "COL",
      "MRAcquisitionType": "2D",
      "MagneticFieldStrength": 3.0,
      "Manufacturer": "SIEMENS",
      "ManufacturerModelName": "Prisma_fit",
      "Modality": "MR",
      "NumberOfAverages": 1.0,
      "NumberOfPhaseEncodingSteps": 104,
      "PercentPhaseFieldOfView": 100.0,
      "PercentSampling": 100.0,
      "PerformedProcedureStepStartTime": "103623.016000",
      "PhotometricInterpretation": "MONOCHROME2",
      "PixelBandwidth": 2290.0,
      "PixelRepresentation": 0,
      "PixelSpacing": [2.0, 2.0],
      "ProtocolName": "func_task-shinobi_run-5",
      "RepetitionTime": 1490.0,
      "Rows": 832,
      "SAR": 0.03474022641873,
      "SamplesPerPixel": 1,
      "ScanOptions": "FS",
      "ScanningSequence": "EP",
      "SequenceName": "epfid2d1_104",
      "SequenceVariant": [
        "SK",
        "SS"
],
      "SeriesDescription": "func_task-shinobi_run-5",
      "SeriesNumber": 17,
      "SeriesTime": "113650.442000",
      "SliceLocation": -49.425227192136,
      "SliceThickness": 2.0,
      "SmallestImagePixelValue": 0,
      "SoftwareVersions": "syngo MR E11",
      "SpacingBetweenSlices": 1.9999999928349,
      "SpecificCharacterSet": "ISO_IR 100",
      "StudyID": "1",
      "StudyTime": "103622.936000",
      "TransmitCoilName": "Body",
      "VariableFlipAngleFlag": "N",
      "WindowCenterWidthExplanation": "Algo1",
      "dBdt": 0.0},
    "slices": {}
  },
  "time": {
    "samples": {
      "AcquisitionNumber": [1, 2, 3, 4, 5, 6, 7, 8, 9, 10, 11, 12, 13, 14, 15, 16, 17, 18, 19, 20, 21, 22, 23, 24, 25, 26, 27, 28, 29, 30, 31, 32, 33, 34, 35, 36, 37, 38, 39, 40, 41, 42, 43, 44, 45, 46, 47, 48, 49, 50, 51, 52, 53, 54, 55, 56, 57, 58, 59, 60, 61, 62, 63, 64, 65, 66, 67, 68, 69, 70, 71, 72, 73, 74, 75, 76, 77, 78, 79, 80, 81, 82, 83, 84, 85, 86, 87, 88, 89, 90, 91, 92, 93, 94, 95, 96, 97, 98, 99, 100, 101, 102, 103, 104, 105, 106, 107, 108, 109, 110, 111, 112, 113, 114, 115, 116, 117, 118, 119, 120, 121, 122, 123, 124, 125, 126, 127, 128, 129, 130, 131, 132, 133, 134, 135, 136, 137, 138, 139, 140, 141, 142, 143, 144, 145, 146, 147, 148, 149, 150, 151, 152, 153, 154, 155, 156, 157, 158, 159, 160, 161, 162, 163, 164, 165, 166, 167, 168, 169, 170, 171, 172, 173, 174, 175, 176, 177, 178, 179, 180, 181, 182, 183, 184, 185, 186, 187, 188, 189, 190, 191, 192, 193, 194, 195, 196, 197, 198, 199, 200, 201, 202, 203, 204, 205, 206, 207, 208, 209, 210, 211, 212, 213, 214, 215, 216, 217, 218, 219, 220, 221, 222, 223, 224, 225, 226, 227, 228, 229, 230, 231, 232, 233, 234, 235, 236, 237, 238, 239, 240, 241, 242, 243, 244, 245, 246, 247, 248, 249, 250, 251, 252, 253, 254, 255, 256, 257, 258, 259, 260, 261, 262, 263, 264, 265, 266, 267, 268, 269, 270, 271, 272, 273, 274, 275, 276, 277, 278, 279, 280, 281, 282, 283, 284, 285, 286, 287, 288, 289, 290, 291, 292, 293, 294, 295, 296, 297, 298, 299, 300, 301, 302, 303, 304, 305, 306, 307, 308, 309, 310, 311, 312, 313, 314, 315, 316, 317, 318, 319, 320, 321, 322, 323, 324, 325, 326, 327, 328, 329, 330, 331, 332, 333, 334, 335, 336, 337, 338, 339, 340, 341, 342, 343, 344, 345, 346, 347, 348, 349, 350, 351, 352, 353, 354, 355, 356, 357, 358, 359, 360, 361, 362, 363, 364, 365, 366, 367, 368, 369, 370, 371, 372, 373, 374, 375, 376, 377, 378, 379, 380, 381, 382, 383, 384, 385, 386, 387, 388, 389, 390, 391, 392, 393, 394, 395, 396, 397, 398, 399, 400, 401, 402, 403, 404, 405, 406, 407, 408, 409, 410, 411, 412, 413, 414, 415, 416, 417, 418, 419, 420, 421, 422, 423, 424, 425, 426, 427, 428, 429, 430, 431, 432, 433, 434, 435, 436, 437, 438, 439, 440, 441, 442, 443, 444, 445, 446, 447, 448, 449, 450, 451, 452, 453, 454, 455, 456, 457, 458, 459, 460, 461, 462, 463, 464, 465, 466, 467, 468],
      "AcquisitionTime": ["113535.867500", "113537.357500", "113538.847500", "113540.337500", "113541.827500", "113543.317500", "113544.807500", "113546.297500", "113547.787500", "113549.277500", "113550.767500", "113552.257500", "113553.747500", "113555.237500", "113556.727500", "113558.217500", "113559.707500", "113601.197500", "113602.687500", "113604.177500", "113605.667500", "113607.157500", "113608.647500", "113610.137500", "113611.627500", "113613.117500", "113614.607500", "113616.097500", "113617.587500", "113619.077500", "113620.567500", "113622.057500", "113623.547500", "113625.037500", "113626.527500", "113628.017500", "113629.507500", "113630.997500", "113632.487500", "113633.977500", "113635.467500", "113636.957500", "113638.447500", "113639.937500", "113641.427500", "113642.917500", "113644.407500", "113645.897500", "113647.387500", "113648.877500", "113650.367500", "113651.857500", "113653.347500", "113654.837500", "113656.327500", "113657.817500", "113659.307500", "113700.797500", "113702.287500", "113703.777500", "113705.267500", "113706.757500", "113708.247500", "113709.737500", "113711.227500", "113712.717500", "113714.207500", "113715.697500", "113717.187500", "113718.677500", "113720.167500", "113721.657500", "113723.147500", "113724.637500", "113726.127500", "113727.617500", "113729.107500", "113730.597500", "113732.087500", "113733.577500", "113735.067500", "113736.557500", "113738.047500", "113739.537500", "113741.027500", "113742.517500", "113744.007500", "113745.497500", "113746.987500", "113748.477500", "113749.967500", "113751.457500", "113752.947500", "113754.437500", "113755.927500", "113757.417500", "113758.907500", "113800.397500", "113801.887500", "113803.377500", "113804.867500", "113806.357500", "113807.847500", "113809.337500", "113810.827500", "113812.317500", "113813.807500", "113815.297500", "113816.787500", "113818.277500", "113819.767500", "113821.257500", "113822.747500", "113824.237500", "113825.727500", "113827.217500", "113828.707500", "113830.197500", "113831.687500", "113833.177500", "113834.667500", "113836.157500", "113837.647500", "113839.137500", "113840.627500", "113842.117500", "113843.607500", "113845.097500", "113846.587500", "113848.077500", "113849.567500", "113851.057500", "113852.547500", "113854.037500", "113855.527500", "113857.017500", "113858.507500", "113859.997500", "113901.487500", "113902.977500", "113904.467500", "113905.957500", "113907.447500", "113908.937500", "113910.427500", "113911.917500", "113913.407500", "113914.897500", "113916.387500", "113917.877500", "113919.367500", "113920.857500", "113922.347500", "113923.837500", "113925.327500", "113926.817500", "113928.307500", "113929.797500", "113931.287500", "113932.777500", "113934.267500", "113935.757500", "113937.247500", "113938.737500", "113940.227500", "113941.717500", "113943.207500", "113944.697500", "113946.187500", "113947.677500", "113949.167500", "113950.657500", "113952.147500", "113953.637500", "113955.127500", "113956.617500", "113958.107500", "113959.597500", "114001.087500", "114002.577500", "114004.067500", "114005.557500", "114007.047500", "114008.537500", "114010.027500", "114011.517500", "114013.007500", "114014.497500", "114015.987500", "114017.477500", "114018.967500", "114020.457500", "114021.947500", "114023.437500", "114024.927500", "114026.417500", "114027.907500", "114029.397500", "114030.887500", "114032.377500", "114033.867500", "114035.357500", "114036.847500", "114038.337500", "114039.827500", "114041.317500", "114042.807500", "114044.297500", "114045.787500", "114047.277500", "114048.767500", "114050.257500", "114051.747500", "114053.237500", "114054.727500", "114056.217500", "114057.707500", "114059.197500", "114100.687500", "114102.177500", "114103.667500", "114105.157500", "114106.647500", "114108.137500", "114109.627500", "114111.117500", "114112.607500", "114114.097500", "114115.587500", "114117.077500", "114118.567500", "114120.057500", "114121.547500", "114123.037500", "114124.527500", "114126.017500", "114127.507500", "114128.997500", "114130.487500", "114131.977500", "114133.467500", "114134.957500", "114136.447500", "114137.937500", "114139.427500", "114140.917500", "114142.407500", "114143.897500", "114145.387500", "114146.877500", "114148.367500", "114149.857500", "114151.347500", "114152.837500", "114154.327500", "114155.817500", "114157.307500", "114158.797500", "114200.287500", "114201.777500", "114203.267500", "114204.757500", "114206.247500", "114207.737500", "114209.227500", "114210.717500", "114212.207500", "114213.697500", "114215.187500", "114216.677500", "114218.167500", "114219.657500", "114221.147500", "114222.637500", "114224.127500", "114225.617500", "114227.107500", "114228.597500", "114230.087500", "114231.577500", "114233.067500", "114234.557500", "114236.047500", "114237.537500", "114239.027500", "114240.517500", "114242.007500", "114243.497500", "114244.987500", "114246.477500", "114247.967500", "114249.457500", "114250.947500", "114252.437500", "114253.927500", "114255.417500", "114256.907500", "114258.397500", "114259.887500", "114301.377500", "114302.867500", "114304.357500", "114305.847500", "114307.337500", "114308.827500", "114310.317500", "114311.807500", "114313.297500", "114314.787500", "114316.277500", "114317.767500", "114319.257500", "114320.747500", "114322.237500", "114323.727500", "114325.217500", "114326.707500", "114328.197500", "114329.687500", "114331.177500", "114332.667500", "114334.157500", "114335.647500", "114337.137500", "114338.627500", "114340.117500", "114341.607500", "114343.097500", "114344.587500", "114346.077500", "114347.567500", "114349.057500", "114350.547500", "114352.037500", "114353.527500", "114355.017500", "114356.507500", "114357.997500", "114359.487500", "114400.977500", "114402.467500", "114403.957500", "114405.447500", "114406.937500", "114408.427500", "114409.917500", "114411.407500", "114412.897500", "114414.387500", "114415.877500", "114417.367500", "114418.857500", "114420.347500", "114421.837500", "114423.327500", "114424.817500", "114426.307500", "114427.797500", "114429.287500", "114430.777500", "114432.267500", "114433.757500", "114435.247500", "114436.737500", "114438.227500", "114439.717500", "114441.207500", "114442.697500", "114444.187500", "114445.677500", "114447.167500", "114448.657500", "114450.147500", "114451.637500", "114453.127500", "114454.617500", "114456.107500", "114457.597500", "114459.087500", "114500.577500", "114502.067500", "114503.557500", "114505.047500", "114506.537500", "114508.027500", "114509.517500", "114511.007500", "114512.497500", "114513.987500", "114515.477500", "114516.967500", "114518.457500", "114519.947500", "114521.437500", "114522.927500", "114524.417500", "114525.907500", "114527.397500", "114528.887500", "114530.377500", "114531.867500", "114533.357500", "114534.847500", "114536.337500", "114537.827500", "114539.317500", "114540.807500", "114542.297500", "114543.787500", "114545.277500", "114546.767500", "114548.257500", "114549.747500", "114551.237500", "114552.727500", "114554.217500", "114555.707500", "114557.197500", "114558.687500", "114600.177500", "114601.667500", "114603.157500", "114604.647500", "114606.137500", "114607.627500", "114609.117500", "114610.607500", "114612.097500", "114613.587500", "114615.077500", "114616.567500", "114618.057500", "114619.547500", "114621.037500", "114622.527500", "114624.017500", "114625.507500", "114626.997500", "114628.487500", "114629.977500", "114631.467500", "114632.957500", "114634.447500", "114635.937500", "114637.427500", "114638.917500", "114640.407500", "114641.897500", "114643.387500", "114644.877500", "114646.367500", "114647.857500", "114649.347500", "114650.837500", "114652.327500", "114653.817500", "114655.307500", "114656.797500", "114658.287500", "114659.777500", "114701.267500", "114702.757500", "114704.247500", "114705.737500", "114707.227500", "114708.717500", "114710.207500", "114711.697500"],
      "ContentTime": ["113650.446000", "113650.449000", "113650.452000", "113650.455000", "113650.458000", "113650.461000", "113650.463000", "113650.466000", "113650.469000", "113650.476000", "113650.479000", "113650.482000", "113650.499000", "113650.502000", "113650.511000", "113650.514000", "113650.517000", "113650.520000", "113650.523000", "113650.525000", "113710.418000", "113710.422000", "113710.434000", "113710.438000", "113710.441000", "113710.444000", "113710.447000", "113710.450000", "113710.453000", "113710.455000", "113710.458000", "113710.461000", "113710.465000", "113710.468000", "113710.471000", "113710.475000", "113710.478000", "113710.482000", "113710.486000", "113710.489000", "113730.416000", "113730.419000", "113730.422000", "113730.425000", "113730.427000", "113730.430000", "113730.433000", "113730.436000", "113730.444000", "113730.446000", "113730.449000", "113730.458000", "113730.461000", "113730.464000", "113730.467000", "113730.470000", "113730.472000", "113730.475000", "113730.478000", "113730.481000", "113750.416000", "113750.419000", "113750.422000", "113750.425000", "113750.427000", "113750.430000", "113750.433000", "113750.436000", "113750.439000", "113750.442000", "113750.444000", "113750.447000", "113750.450000", "113750.453000", "113750.456000", "113750.459000", "113750.462000", "113750.465000", "113750.467000", "113750.470000", "113810.416000", "113810.419000", "113810.422000", "113810.425000", "113810.428000", "113810.430000", "113810.433000", "113810.436000", "113810.440000", "113810.443000", "113810.446000", "113810.449000", "113810.452000", "113810.456000", "113810.459000", "113810.462000", "113810.465000", "113810.468000", "113810.471000", "113810.474000", "113850.417000", "113850.420000", "113850.423000", "113850.426000", "113850.429000", "113850.432000", "113850.435000", "113850.437000", "113850.440000", "113850.443000", "113850.446000", "113850.449000", "113850.451000", "113850.454000", "113850.457000", "113850.460000", "113850.463000", "113850.466000", "113850.469000", "113850.472000", "113850.475000", "113850.478000", "113850.480000", "113850.483000", "113850.486000", "113850.489000", "113850.492000", "113850.495000", "113850.498000", "113930.417000", "113930.420000", "113930.423000", "113930.426000", "113930.429000", "113930.432000", "113930.435000", "113930.437000", "113930.440000", "113930.443000", "113930.446000", "113930.449000", "113930.452000", "113930.454000", "113930.457000", "113930.460000", "113930.463000", "113930.466000", "113930.469000", "113930.472000", "113930.474000", "113930.477000", "113930.480000", "113930.483000", "113930.486000", "113930.489000", "113930.492000", "114010.416000", "114010.425000", "114010.428000", "114010.431000", "114010.441000", "114010.444000", "114010.447000", "114010.450000", "114010.453000", "114010.456000", "114010.458000", "114010.461000", "114010.464000", "114010.467000", "114010.470000", "114010.473000", "114010.476000", "114010.479000", "114010.482000", "114010.484000", "114010.487000", "114010.490000", "114010.493000", "114010.496000", "114010.499000", "114010.502000", "114010.505000", "114050.417000", "114050.420000", "114050.423000", "114050.426000", "114050.429000", "114050.432000", "114050.434000", "114050.437000", "114050.440000", "114050.443000", "114050.446000", "114050.449000", "114050.452000", "114050.455000", "114050.457000", "114050.460000", "114050.463000", "114050.466000", "114050.469000", "114050.472000", "114050.475000", "114050.478000", "114050.480000", "114050.483000", "114050.486000", "114050.489000", "114050.492000", "114130.417000", "114130.420000", "114130.423000", "114130.426000", "114130.429000", "114130.432000", "114130.435000", "114130.438000", "114130.441000", "114130.444000", "114130.447000", "114130.450000", "114130.453000", "114130.456000", "114130.459000", "114130.462000", "114130.465000", "114130.468000", "114130.471000", "114130.480000", "114130.483000", "114130.486000", "114130.489000", "114130.492000", "114130.495000", "114130.497000", "114130.500000", "114210.416000", "114210.419000", "114210.422000", "114210.425000", "114210.428000", "114210.430000", "114210.433000", "114210.436000", "114210.439000", "114210.442000", "114210.445000", "114210.448000", "114210.450000", "114210.453000", "114210.456000", "114210.459000", "114210.462000", "114210.465000", "114210.468000", "114210.471000", "114210.474000", "114210.477000", "114210.480000", "114210.482000", "114210.485000", "114210.488000", "114210.491000", "114250.416000", "114250.419000", "114250.422000", "114250.425000", "114250.429000", "114250.432000", "114250.435000", "114250.438000", "114250.441000", "114250.444000", "114250.447000", "114250.450000", "114250.453000", "114250.456000", "114250.458000", "114250.461000", "114250.464000", "114250.467000", "114250.470000", "114250.473000", "114250.476000", "114250.479000", "114250.482000", "114250.485000", "114250.487000", "114250.490000", "114330.417000", "114330.420000", "114330.423000", "114330.431000", "114330.434000", "114330.437000", "114330.440000", "114330.443000", "114330.446000", "114330.449000", "114330.452000", "114330.455000", "114330.458000", "114330.461000", "114330.464000", "114330.467000", "114330.470000", "114330.473000", "114330.476000", "114330.479000", "114330.482000", "114330.485000", "114330.487000", "114330.490000", "114330.493000", "114330.496000", "114330.499000", "114410.417000", "114410.420000", "114410.430000", "114410.433000", "114410.436000", "114410.439000", "114410.442000", "114410.445000", "114410.448000", "114410.450000", "114410.453000", "114410.456000", "114410.459000", "114410.462000", "114410.465000", "114410.468000", "114410.471000", "114410.473000", "114410.476000", "114410.479000", "114410.483000", "114410.485000", "114410.488000", "114410.491000", "114410.494000", "114410.497000", "114410.500000", "114450.416000", "114450.434000", "114450.437000", "114450.440000", "114450.443000", "114450.446000", "114450.449000", "114450.452000", "114450.455000", "114450.458000", "114450.460000", "114450.463000", "114450.466000", "114450.469000", "114450.472000", "114450.475000", "114450.478000", "114450.481000", "114450.484000", "114450.487000", "114450.489000", "114450.492000", "114450.495000", "114450.498000", "114450.501000", "114450.504000", "114450.507000", "114530.417000", "114530.421000", "114530.424000", "114530.427000", "114530.434000", "114530.438000", "114530.441000", "114530.444000", "114530.448000", "114530.451000", "114530.454000", "114530.457000", "114530.460000", "114530.463000", "114530.466000", "114530.469000", "114530.472000", "114530.475000", "114530.478000", "114530.481000", "114530.484000", "114530.487000", "114530.490000", "114530.493000", "114530.496000", "114530.498000", "114530.501000", "114610.417000", "114610.420000", "114610.423000", "114610.427000", "114610.430000", "114610.433000", "114610.436000", "114610.445000", "114610.448000", "114610.451000", "114610.454000", "114610.458000", "114610.461000", "114610.464000", "114610.467000", "114610.470000", "114610.473000", "114610.476000", "114610.479000", "114610.482000", "114610.484000", "114610.487000", "114610.490000", "114610.493000", "114610.496000", "114610.499000", "114610.501000", "114650.416000", "114650.419000", "114650.437000", "114650.440000", "114650.443000", "114650.446000", "114650.449000", "114650.452000", "114650.455000", "114650.458000", "114650.461000", "114650.464000", "114650.467000", "114650.470000", "114650.473000", "114650.476000", "114650.479000", "114650.483000", "114650.486000", "114650.489000", "114650.491000", "114650.494000", "114650.497000", "114650.500000", "114650.503000", "114650.506000", "114650.509000", "114715.269000", "114715.273000", "114715.276000", "114715.279000", "114715.283000", "114715.286000", "114715.289000", "114715.292000", "114715.296000", "114715.299000", "114715.302000", "114715.305000", "114715.308000", "114715.311000", "114715.314000", "114715.317000"],
