{
  "AcquisitionMatrixPE": 104,
  "AcquisitionNumber": 1,
  "AcquisitionTime": "11:13:57.452500",
  "BandwidthPerPixelPhaseEncode": 17.17,
  "BaseResolution": 104,
  "BodyPartExamined": "BRAIN",
  "CoilString": "HC1-7;NC1_2",
  "ConsistencyInfo": "N4_VE11C_LATEST_20160120",
  "ConversionSoftware": "dcm2niix",
  "ConversionSoftwareVersion": "v1.0.20190902",
  "DerivedVendorReportedEchoSpacing": 0.000560011,
  "DeviceSerialNumber": "167006",
  "DwellTime": 2.1e-06,
  "EchoTime": 0.037,
  "EchoTrainLength": 104,
  "EffectiveEchoSpacing": 0.000560011,
  "FlipAngle": 52,
  "ImageComments": "Unaliased_MB4_PE3_LB",
  "ImageOrientationPatientDICOM": [0.991115, 0.112058, 0.0716577, -0.08462, 0.946865, -0.3103],
  "ImageType": [
    "ORIGINAL",
    "PRIMARY",
    "M",
    "MB",
    "ND",
    "MOSAIC"
],
  "ImagingFrequency": 123.259,
  "InPlanePhaseEncodingDirectionDICOM": "COL",
  "InstitutionAddress": "Chemin_Queen-Mary_4565_Montreal_District_CA_H3W_1W5",
  "InstitutionName": "IUGM",
  "InstitutionalDepartmentName": "Department",
  "MRAcquisitionType": "2D",
  "MagneticFieldStrength": 3,
  "Manufacturer": "Siemens",
  "ManufacturersModelName": "Prisma_fit",
  "Modality": "MR",
  "MultibandAccelerationFactor": 4,
  "PartialFourier": 1,
  "PatientPosition": "HFS",
  "PercentPhaseFOV": 100,
  "PhaseEncodingDirection": "j",
  "PhaseEncodingSteps": 104,
  "PhaseResolution": 1,
  "PixelBandwidth": 2290,
  "ProcedureStepDescription": "games_shinobi",
  "ProtocolName": "func_task-shinobi_run-3",
  "PulseSequenceDetails": "%CustomerSeq%_cmrr_mbep2d_bold",
  "ReceiveCoilActiveElements": "HC1-7;NC1,2",
  "ReceiveCoilName": "HeadNeck_64",
  "ReconMatrixPE": 104,
  "RepetitionTime": 1.49,
  "SAR": 0.0380727,
  "ScanOptions": "FS",
  "ScanningSequence": "EP",
  "SequenceName": "epfid2d1_104",
  "SequenceVariant": "SK_SS",
  "SeriesDescription": "func_task-shinobi_run-3",
  "SeriesNumber": 13,
  "ShimSetting": [637, -7223, -8834, 637, 84, -80, 39, 8],
  "SliceThickness": 2,
  "SliceTiming": [0, 0.785, 0.1, 0.8825, 0.1975, 0.98, 0.295, 1.08, 0.3925, 1.1775, 0.49, 1.275, 0.59, 1.3725, 0.6875, 0, 0.785, 0.1, 0.8825, 0.1975, 0.98, 0.295, 1.08, 0.3925, 1.1775, 0.49, 1.275, 0.59, 1.3725, 0.6875, 0, 0.785, 0.1, 0.8825, 0.1975, 0.98, 0.295, 1.08, 0.3925, 1.1775, 0.49, 1.275, 0.59, 1.3725, 0.6875, 0, 0.785, 0.1, 0.8825, 0.1975, 0.98, 0.295, 1.08, 0.3925, 1.1775, 0.49, 1.275, 0.59, 1.3725, 0.6875],
  "SoftwareVersions": "syngo_MR_E11",
  "SpacingBetweenSlices": 2,
  "StationName": "MRC35049",
  "TaskName": "shinobi",
  "TotalReadoutTime": 0.0576811,
  "TxRefAmp": 243.555,
  "WipMemBlock": "9296532d-1c05-4792-a015-24e2cd6730b6||Sequence: R016 ve11c/master r/e634e98; Dec 19 2017 11:00:25 by eja",
  "dcmmeta_affine": [
    [-1.9822293519973755, -0.16923999786376953, 0.20524336397647858, 108.90017700195312],
    [-0.22411537170410156, 1.8937301635742188, -0.6029582023620605, -50.59675979614258],
    [0.14331544935703278, 0.6205998063087463, 1.8958683013916016, -61.104530334472656],
    [0.0, 0.0, 0.0, 1.0]
],
  "dcmmeta_reorient_transform": [
    [0.0, -1.0, 0.0, 103.0],
    [1.0, 0.0, 0.0, 0.0],
    [0.0, 0.0, 1.0, 0.0],
    [0.0, 0.0, 0.0, 1.0]
],
  "dcmmeta_shape": [104, 104, 60, 429],
  "dcmmeta_slice_dim": 2,
  "dcmmeta_version": 0.6,
  "global": {
    "const": {
      "AcquisitionMatrix": [104, 0, 0, 104],
      "AngioFlag": "N",
      "BitsAllocated": 16,
      "BitsStored": 16,
      "BodyPartExamined": "BRAIN",
      "Columns": 832,
      "EchoNumbers": 1,
      "EchoTime": 37.0,
      "EchoTrainLength": 104,
      "FlipAngle": 52.0,
      "HighBit": 15,
      "ImageOrientationPatient": [0.99111464799633, 0.1120576861679, 0.07165772462059, -0.0846200018024, 0.94686505598887, -0.3102998888852],
      "ImagePositionPatient": [-751.39656049352, -915.35319687726, 176.5487414378],
      "ImageType": [
        "ORIGINAL",
        "PRIMARY",
        "M",
        "MB",
        "ND",
        "MOSAIC"
],
      "ImagedNucleus": "1H",
      "ImagingFrequency": 123.259307,
      "InPlanePhaseEncodingDirection": "COL",
      "MRAcquisitionType": "2D",
      "MagneticFieldStrength": 3.0,
      "Manufacturer": "SIEMENS",
      "ManufacturerModelName": "Prisma_fit",
      "Modality": "MR",
      "NumberOfAverages": 1.0,
      "NumberOfPhaseEncodingSteps": 104,
      "PercentPhaseFieldOfView": 100.0,
      "PercentSampling": 100.0,
      "PerformedProcedureStepStartTime": "104523.414000",
      "PhotometricInterpretation": "MONOCHROME2",
      "PixelBandwidth": 2290.0,
      "PixelRepresentation": 0,
      "PixelSpacing": [2.0, 2.0],
      "ProtocolName": "func_task-shinobi_run-3",
      "RepetitionTime": 1490.0,
      "Rows": 832,
      "SAR": 0.03807270243049,
      "SamplesPerPixel": 1,
      "ScanOptions": "FS",
      "ScanningSequence": "EP",
      "SequenceName": "epfid2d1_104",
      "SequenceVariant": [
        "SK",
        "SS"
],
      "SeriesDescription": "func_task-shinobi_run-3",
      "SeriesNumber": 13,
      "SeriesTime": "111454.147000",
      "SliceLocation": -31.493686838497,
      "SliceThickness": 2.0,
      "SmallestImagePixelValue": 0,
      "SoftwareVersions": "syngo MR E11",
      "SpacingBetweenSlices": 2.0000000077638,
      "SpecificCharacterSet": "ISO_IR 100",
      "StudyID": "1",
      "StudyTime": "104523.327000",
      "TransmitCoilName": "Body",
      "VariableFlipAngleFlag": "N",
      "WindowCenterWidthExplanation": "Algo1",
      "dBdt": 0.0},
    "slices": {}
  },
  "time": {
    "samples": {
      "AcquisitionNumber": [1, 2, 3, 4, 5, 6, 7, 8, 9, 10, 11, 12, 13, 14, 15, 16, 17, 18, 19, 20, 21, 22, 23, 24, 25, 26, 27, 28, 29, 30, 31, 32, 33, 34, 35, 36, 37, 38, 39, 40, 41, 42, 43, 44, 45, 46, 47, 48, 49, 50, 51, 52, 53, 54, 55, 56, 57, 58, 59, 60, 61, 62, 63, 64, 65, 66, 67, 68, 69, 70, 71, 72, 73, 74, 75, 76, 77, 78, 79, 80, 81, 82, 83, 84, 85, 86, 87, 88, 89, 90, 91, 92, 93, 94, 95, 96, 97, 98, 99, 100, 101, 102, 103, 104, 105, 106, 107, 108, 109, 110, 111, 112, 113, 114, 115, 116, 117, 118, 119, 120, 121, 122, 123, 124, 125, 126, 127, 128, 129, 130, 131, 132, 133, 134, 135, 136, 137, 138, 139, 140, 141, 142, 143, 144, 145, 146, 147, 148, 149, 150, 151, 152, 153, 154, 155, 156, 157, 158, 159, 160, 161, 162, 163, 164, 165, 166, 167, 168, 169, 170, 171, 172, 173, 174, 175, 176, 177, 178, 179, 180, 181, 182, 183, 184, 185, 186, 187, 188, 189, 190, 191, 192, 193, 194, 195, 196, 197, 198, 199, 200, 201, 202, 203, 204, 205, 206, 207, 208, 209, 210, 211, 212, 213, 214, 215, 216, 217, 218, 219, 220, 221, 222, 223, 224, 225, 226, 227, 228, 229, 230, 231, 232, 233, 234, 235, 236, 237, 238, 239, 240, 241, 242, 243, 244, 245, 246, 247, 248, 249, 250, 251, 252, 253, 254, 255, 256, 257, 258, 259, 260, 261, 262, 263, 264, 265, 266, 267, 268, 269, 270, 271, 272, 273, 274, 275, 276, 277, 278, 279, 280, 281, 282, 283, 284, 285, 286, 287, 288, 289, 290, 291, 292, 293, 294, 295, 296, 297, 298, 299, 300, 301, 302, 303, 304, 305, 306, 307, 308, 309, 310, 311, 312, 313, 314, 315, 316, 317, 318, 319, 320, 321, 322, 323, 324, 325, 326, 327, 328, 329, 330, 331, 332, 333, 334, 335, 336, 337, 338, 339, 340, 341, 342, 343, 344, 345, 346, 347, 348, 349, 350, 351, 352, 353, 354, 355, 356, 357, 358, 359, 360, 361, 362, 363, 364, 365, 366, 367, 368, 369, 370, 371, 372, 373, 374, 375, 376, 377, 378, 379, 380, 381, 382, 383, 384, 385, 386, 387, 388, 389, 390, 391, 392, 393, 394, 395, 396, 397, 398, 399, 400, 401, 402, 403, 404, 405, 406, 407, 408, 409, 410, 411, 412, 413, 414, 415, 416, 417, 418, 419, 420, 421, 422, 423, 424, 425, 426, 427, 428, 429],
      "AcquisitionTime": ["111357.452500", "111358.942500", "111400.432500", "111401.922500", "111403.412500", "111404.902500", "111406.392500", "111407.882500", "111409.372500", "111410.862500", "111412.352500", "111413.842500", "111415.332500", "111416.822500", "111418.312500", "111419.802500", "111421.292500", "111422.782500", "111424.272500", "111425.762500", "111427.252500", "111428.742500", "111430.232500", "111431.722500", "111433.212500", "111434.702500", "111436.192500", "111437.682500", "111439.172500", "111440.662500", "111442.152500", "111443.642500", "111445.132500", "111446.622500", "111448.112500", "111449.602500", "111451.092500", "111452.582500", "111454.072500", "111455.562500", "111457.052500", "111458.542500", "111500.032500", "111501.522500", "111503.012500", "111504.502500", "111505.992500", "111507.482500", "111508.972500", "111510.462500", "111511.952500", "111513.442500", "111514.932500", "111516.422500", "111517.912500", "111519.402500", "111520.892500", "111522.382500", "111523.872500", "111525.362500", "111526.852500", "111528.342500", "111529.832500", "111531.322500", "111532.812500", "111534.302500", "111535.792500", "111537.282500", "111538.772500", "111540.262500", "111541.752500", "111543.242500", "111544.732500", "111546.222500", "111547.712500", "111549.202500", "111550.692500", "111552.182500", "111553.672500", "111555.162500", "111556.652500", "111558.142500", "111559.632500", "111601.122500", "111602.612500", "111604.102500", "111605.592500", "111607.082500", "111608.572500", "111610.062500", "111611.552500", "111613.042500", "111614.532500", "111616.022500", "111617.512500", "111619.002500", "111620.492500", "111621.982500", "111623.472500", "111624.962500", "111626.452500", "111627.942500", "111629.432500", "111630.922500", "111632.412500", "111633.902500", "111635.392500", "111636.882500", "111638.372500", "111639.862500", "111641.352500", "111642.842500", "111644.332500", "111645.822500", "111647.312500", "111648.802500", "111650.292500", "111651.782500", "111653.272500", "111654.762500", "111656.252500", "111657.742500", "111659.232500", "111700.722500", "111702.212500", "111703.702500", "111705.192500", "111706.682500", "111708.172500", "111709.662500", "111711.152500", "111712.642500", "111714.132500", "111715.622500", "111717.112500", "111718.602500", "111720.092500", "111721.582500", "111723.072500", "111724.562500", "111726.052500", "111727.542500", "111729.032500", "111730.522500", "111732.012500", "111733.502500", "111734.992500", "111736.482500", "111737.972500", "111739.462500", "111740.952500", "111742.442500", "111743.932500", "111745.422500", "111746.912500", "111748.402500", "111749.892500", "111751.382500", "111752.872500", "111754.362500", "111755.852500", "111757.342500", "111758.832500", "111800.322500", "111801.812500", "111803.302500", "111804.792500", "111806.282500", "111807.772500", "111809.262500", "111810.752500", "111812.242500", "111813.732500", "111815.222500", "111816.712500", "111818.202500", "111819.692500", "111821.182500", "111822.672500", "111824.162500", "111825.652500", "111827.142500", "111828.632500", "111830.122500", "111831.612500", "111833.102500", "111834.592500", "111836.082500", "111837.572500", "111839.062500", "111840.552500", "111842.042500", "111843.532500", "111845.022500", "111846.512500", "111848.002500", "111849.492500", "111850.982500", "111852.472500", "111853.962500", "111855.452500", "111856.942500", "111858.432500", "111859.922500", "111901.412500", "111902.902500", "111904.392500", "111905.882500", "111907.372500", "111908.862500", "111910.352500", "111911.842500", "111913.332500", "111914.822500", "111916.312500", "111917.802500", "111919.292500", "111920.782500", "111922.272500", "111923.762500", "111925.252500", "111926.742500", "111928.232500", "111929.722500", "111931.212500", "111932.702500", "111934.192500", "111935.682500", "111937.172500", "111938.662500", "111940.152500", "111941.642500", "111943.132500", "111944.622500", "111946.112500", "111947.602500", "111949.092500", "111950.582500", "111952.072500", "111953.562500", "111955.052500", "111956.542500", "111958.032500", "111959.522500", "112001.012500", "112002.502500", "112003.992500", "112005.482500", "112006.972500", "112008.462500", "112009.952500", "112011.442500", "112012.932500", "112014.422500", "112015.912500", "112017.402500", "112018.892500", "112020.382500", "112021.872500", "112023.362500", "112024.852500", "112026.342500", "112027.832500", "112029.322500", "112030.812500", "112032.302500", "112033.792500", "112035.282500", "112036.772500", "112038.262500", "112039.752500", "112041.242500", "112042.732500", "112044.222500", "112045.712500", "112047.202500", "112048.692500", "112050.182500", "112051.672500", "112053.162500", "112054.652500", "112056.142500", "112057.632500", "112059.122500", "112100.612500", "112102.102500", "112103.592500", "112105.082500", "112106.572500", "112108.062500", "112109.552500", "112111.042500", "112112.532500", "112114.022500", "112115.512500", "112117.002500", "112118.492500", "112119.982500", "112121.472500", "112122.962500", "112124.452500", "112125.942500", "112127.432500", "112128.922500", "112130.412500", "112131.902500", "112133.392500", "112134.882500", "112136.372500", "112137.862500", "112139.352500", "112140.842500", "112142.332500", "112143.822500", "112145.312500", "112146.802500", "112148.292500", "112149.782500", "112151.272500", "112152.762500", "112154.252500", "112155.742500", "112157.232500", "112158.722500", "112200.212500", "112201.702500", "112203.192500", "112204.682500", "112206.172500", "112207.662500", "112209.152500", "112210.642500", "112212.132500", "112213.622500", "112215.112500", "112216.602500", "112218.092500", "112219.582500", "112221.072500", "112222.562500", "112224.052500", "112225.542500", "112227.032500", "112228.522500", "112230.012500", "112231.502500", "112232.992500", "112234.482500", "112235.972500", "112237.462500", "112238.952500", "112240.442500", "112241.932500", "112243.422500", "112244.912500", "112246.402500", "112247.892500", "112249.382500", "112250.872500", "112252.362500", "112253.852500", "112255.342500", "112256.832500", "112258.322500", "112259.812500", "112301.302500", "112302.792500", "112304.282500", "112305.772500", "112307.262500", "112308.752500", "112310.242500", "112311.732500", "112313.222500", "112314.712500", "112316.202500", "112317.692500", "112319.182500", "112320.672500", "112322.162500", "112323.652500", "112325.142500", "112326.632500", "112328.122500", "112329.612500", "112331.102500", "112332.592500", "112334.082500", "112335.572500", "112337.062500", "112338.552500", "112340.042500", "112341.532500", "112343.022500", "112344.512500", "112346.002500", "112347.492500", "112348.982500", "112350.472500", "112351.962500", "112353.452500", "112354.942500", "112356.432500", "112357.922500", "112359.412500", "112400.902500", "112402.392500", "112403.882500", "112405.372500", "112406.862500", "112408.352500", "112409.842500", "112411.332500", "112412.822500", "112414.312500", "112415.802500", "112417.292500", "112418.782500", "112420.272500", "112421.762500", "112423.252500", "112424.742500", "112426.232500", "112427.722500", "112429.212500", "112430.702500", "112432.192500", "112433.682500", "112435.172500"],
      "ContentTime": ["111454.149000", "111514.120000", "111514.123000", "111514.126000", "111514.128000", "111514.131000", "111514.135000", "111514.138000", "111514.141000", "111514.144000", "111514.147000", "111514.162000", "111514.165000", "111514.168000", "111514.170000", "111514.173000", "111514.176000", "111514.179000", "111514.182000", "111514.185000", "111514.188000", "111534.120000", "111534.123000", "111534.126000", "111534.128000", "111534.132000", "111534.134000", "111534.137000", "111534.140000", "111534.143000", "111534.146000", "111534.149000", "111534.151000", "111534.154000", "111534.157000", "111534.160000", "111534.163000", "111534.166000", "111534.169000", "111534.172000", "111534.174000", "111554.120000", "111554.130000", "111554.133000", "111554.136000", "111554.139000", "111554.141000", "111554.144000", "111554.147000", "111554.150000", "111554.153000", "111554.156000", "111554.159000", "111554.162000", "111554.164000", "111554.167000", "111554.170000", "111554.173000", "111554.176000", "111554.179000", "111554.181000", "111614.120000", "111614.123000", "111614.126000", "111614.129000", "111614.132000", "111614.134000", "111614.137000", "111614.140000", "111614.143000", "111614.146000", "111614.149000", "111614.152000", "111614.154000", "111614.157000", "111614.160000", "111614.163000", "111614.166000", "111614.170000", "111614.173000", "111614.176000", "111614.179000", "111634.120000", "111634.123000", "111634.125000", "111634.128000", "111634.131000", "111634.134000", "111634.137000", "111634.140000", "111634.142000", "111634.145000", "111634.148000", "111634.151000", "111634.154000", "111634.158000", "111634.161000", "111634.163000", "111634.166000", "111634.169000", "111634.172000", "111634.175000", "111714.120000", "111714.123000", "111714.126000", "111714.129000", "111714.140000", "111714.143000", "111714.153000", "111714.156000", "111714.159000", "111714.161000", "111714.164000", "111714.167000", "111714.170000", "111714.173000", "111714.176000", "111714.179000", "111714.182000", "111714.184000", "111714.187000", "111714.190000", "111714.193000", "111714.196000", "111714.199000", "111714.202000", "111714.204000", "111714.207000", "111714.210000", "111714.213000", "111714.216000", "111754.120000", "111754.123000", "111754.126000", "111754.129000", "111754.132000", "111754.134000", "111754.137000", "111754.140000", "111754.143000", "111754.146000", "111754.149000", "111754.151000", "111754.154000", "111754.157000", "111754.160000", "111754.163000", "111754.166000", "111754.169000", "111754.172000", "111754.175000", "111754.178000", "111754.180000", "111754.183000", "111754.186000", "111754.189000", "111754.192000", "111754.195000", "111834.120000", "111834.123000", "111834.126000", "111834.129000", "111834.132000", "111834.135000", "111834.137000", "111834.140000", "111834.143000", "111834.146000", "111834.149000", "111834.152000", "111834.155000", "111834.157000", "111834.160000", "111834.163000", "111834.166000", "111834.169000", "111834.172000", "111834.175000", "111834.178000", "111834.180000", "111834.183000", "111834.188000", "111834.191000", "111834.194000", "111834.197000", "111914.120000", "111914.123000", "111914.126000", "111914.129000", "111914.132000", "111914.135000", "111914.137000", "111914.140000", "111914.143000", "111914.146000", "111914.149000", "111914.153000", "111914.156000", "111914.159000", "111914.162000", "111914.165000", "111914.168000", "111914.171000", "111914.174000", "111914.177000", "111914.180000", "111914.183000", "111914.185000", "111914.188000", "111914.191000", "111914.194000", "111954.120000", "111954.123000", "111954.126000", "111954.129000", "111954.132000", "111954.134000", "111954.137000", "111954.140000", "111954.143000", "111954.146000", "111954.149000", "111954.152000", "111954.155000", "111954.157000", "111954.187000", "111954.190000", "111954.193000", "111954.196000", "111954.199000", "111954.202000", "111954.205000", "111954.207000", "111954.210000", "111954.213000", "111954.216000", "111954.218000", "111954.221000", "112034.120000", "112034.123000", "112034.126000", "112034.129000", "112034.132000", "112034.135000", "112034.137000", "112034.140000", "112034.143000", "112034.146000", "112034.149000", "112034.152000", "112034.155000", "112034.157000", "112034.160000", "112034.163000", "112034.166000", "112034.169000", "112034.172000", "112034.175000", "112034.178000", "112034.180000", "112034.183000", "112034.186000", "112034.189000", "112034.192000", "112034.195000", "112114.120000", "112114.123000", "112114.126000", "112114.129000", "112114.132000", "112114.135000", "112114.138000", "112114.140000", "112114.143000", "112114.146000", "112114.149000", "112114.152000", "112114.155000", "112114.158000", "112114.161000", "112114.164000", "112114.167000", "112114.170000", "112114.173000", "112114.175000", "112114.178000", "112114.181000", "112114.184000", "112114.187000", "112114.190000", "112114.192000", "112114.195000", "112154.120000", "112154.123000", "112154.140000", "112154.143000", "112154.146000", "112154.149000", "112154.152000", "112154.155000", "112154.158000", "112154.161000", "112154.164000", "112154.167000", "112154.169000", "112154.173000", "112154.176000", "112154.178000", "112154.181000", "112154.184000", "112154.187000", "112154.190000", "112154.193000", "112154.196000", "112154.199000", "112154.201000", "112154.204000", "112154.207000", "112154.210000", "112234.120000", "112234.123000", "112234.126000", "112234.129000", "112234.132000", "112234.135000", "112234.137000", "112234.140000", "112234.143000", "112234.146000", "112234.149000", "112234.152000", "112234.155000", "112234.158000", "112234.160000", "112234.163000", "112234.166000", "112234.169000", "112234.172000", "112234.175000", "112234.178000", "112234.181000", "112234.183000", "112234.186000", "112234.189000", "112234.192000", "112234.195000", "112314.120000", "112314.123000", "112314.126000", "112314.129000", "112314.132000", "112314.135000", "112314.137000", "112314.140000", "112314.143000", "112314.146000", "112314.149000", "112314.152000", "112314.155000", "112314.158000", "112314.160000", "112314.164000", "112314.166000", "112314.169000", "112314.172000", "112314.175000", "112314.178000", "112314.181000", "112314.183000", "112314.186000", "112314.189000", "112314.192000", "112314.195000", "112354.120000", "112354.123000", "112354.126000", "112354.129000", "112354.132000", "112354.136000", "112354.139000", "112354.142000", "112354.145000", "112354.147000", "112354.150000", "112354.153000", "112354.156000", "112354.159000", "112354.162000", "112354.165000", "112354.168000", "112354.171000", "112354.173000", "112354.176000", "112354.179000", "112354.182000", "112354.185000", "112354.188000", "112354.191000", "112354.193000", "112434.120000", "112434.123000", "112434.126000", "112434.129000", "112434.132000", "112434.135000", "112434.137000", "112434.140000", "112434.143000", "112434.146000", "112434.149000", "112434.152000", "112434.155000", "112434.157000", "112434.160000", "112434.163000", "112434.166000", "112434.169000", "112434.172000", "112434.175000", "112434.178000", "112434.180000", "112434.183000", "112434.186000", "112434.189000", "112434.192000", "112434.195000", "112438.675000", "112438.678000", "112438.681000"],
      "InstanceCreationTime": ["111454.149000", "111514.120000", "111514.123000", "111514.126000", "111514.128000", "111514.131000", "111514.135000", "111514.138000", "111514.141000", "111514.144000", "111514.147000", "111514.162000", "111514.165000", "111514.168000", "111514.170000", "111514.173000", "111514.176000", "111514.179000", "111514.182000", "111514.185000", "111514.188000", "111534.120000", "111534.123000", "111534.126000", "111534.128000", "111534.132000", "111534.134000", "111534.137000", "111534.140000", "111534.143000", "111534.146000", "111534.149000", "111534.151000", "111534.154000", "111534.157000", "111534.160000", "111534.163000", "111534.166000", "111534.169000", "111534.172000", "111534.174000", "111554.120000", "111554.130000", "111554.133000", "111554.136000", "111554.139000", "111554.141000", "111554.144000", "111554.147000", "111554.150000", "111554.153000", "111554.156000", "111554.159000", "111554.162000", "111554.164000", "111554.167000", "111554.170000", "111554.173000", "111554.176000", "111554.179000", "111554.181000", "111614.120000", "111614.123000", "111614.126000", "111614.129000", "111614.132000", "111614.134000", "111614.137000", "111614.140000", "111614.143000", "111614.146000", "111614.149000", "111614.152000", "111614.154000", "111614.157000", "111614.160000", "111614.163000", "111614.166000", "111614.170000", "111614.173000", "111614.176000", "111614.179000", "111634.120000", "111634.123000", "111634.125000", "111634.128000", "111634.131000", "111634.134000", "111634.137000", "111634.140000", "111634.142000", "111634.145000", "111634.148000", "111634.151000", "111634.154000", "111634.158000", "111634.161000", "111634.163000", "111634.166000", "111634.169000", "111634.172000", "111634.175000", "111714.120000", "111714.123000", "111714.126000", "111714.129000", "111714.140000", "111714.143000", "111714.153000", "111714.156000", "111714.159000", "111714.161000", "111714.164000", "111714.167000", "111714.170000", "111714.173000", "111714.176000", "111714.179000", "111714.182000", "111714.184000", "111714.187000", "111714.190000", "111714.193000", "111714.196000", "111714.199000", "111714.202000", "111714.204000", "111714.207000", "111714.210000", "111714.213000", "111714.216000", "111754.120000", "111754.123000", "111754.126000", "111754.129000", "111754.132000", "111754.134000", "111754.137000", "111754.140000", "111754.143000", "111754.146000", "111754.149000", "111754.151000", "111754.154000", "111754.157000", "111754.160000", "111754.163000", "111754.166000", "111754.169000", "111754.172000", "111754.175000", "111754.178000", "111754.180000", "111754.183000", "111754.186000", "111754.189000", "111754.192000", "111754.195000", "111834.120000", "111834.123000", "111834.126000", "111834.129000", "111834.132000", "111834.135000", "111834.137000", "111834.140000", "111834.143000", "111834.146000", "111834.149000", "111834.152000", "111834.155000", "111834.157000", "111834.160000", "111834.163000", "111834.166000", "111834.169000", "111834.172000", "111834.175000", "111834.178000", "111834.180000", "111834.183000", "111834.188000", "111834.191000", "111834.194000", "111834.197000", "111914.120000", "111914.123000", "111914.126000", "111914.129000", "111914.132000", "111914.135000", "111914.137000", "111914.140000", "111914.143000", "111914.146000", "111914.149000", "111914.153000", "111914.156000", "111914.159000", "111914.162000", "111914.165000", "111914.168000", "111914.171000", "111914.174000", "111914.177000", "111914.180000", "111914.183000", "111914.185000", "111914.188000", "111914.191000", "111914.194000", "111954.120000", "111954.123000", "111954.126000", "111954.129000", "111954.132000", "111954.134000", "111954.137000", "111954.140000", "111954.143000", "111954.146000", "111954.149000", "111954.152000", "111954.155000", "111954.157000", "111954.187000", "111954.190000", "111954.193000", "111954.196000", "111954.199000", "111954.202000", "111954.205000", "111954.207000", "111954.210000", "111954.213000", "111954.216000", "111954.218000", "111954.221000", "112034.120000", "112034.123000", "112034.126000", "112034.129000", "112034.132000", "112034.135000", "112034.137000", "112034.140000", "112034.143000", "112034.146000", "112034.149000", "112034.152000", "112034.155000", "112034.157000", "112034.160000", "112034.163000", "112034.166000", "112034.169000", "112034.172000", "112034.175000", "112034.178000", "112034.180000", "112034.183000", "112034.186000", "112034.189000", "112034.192000", "112034.195000", "112114.120000", "112114.123000", "112114.126000", "112114.129000", "112114.132000", "112114.135000", "112114.138000", "112114.140000", "112114.143000", "112114.146000", "112114.149000", "112114.152000", "112114.155000", "112114.158000", "112114.161000", "112114.164000", "112114.167000", "112114.170000", "112114.173000", "112114.175000", "112114.178000", "112114.181000", "112114.184000", "112114.187000", "112114.190000", "112114.192000", "112114.195000", "112154.120000", "112154.123000", "112154.140000", "112154.143000", "112154.146000", "112154.149000", "112154.152000", "112154.155000", "112154.158000", "112154.161000", "112154.164000", "112154.167000", "112154.169000", "112154.173000", "112154.176000", "112154.178000", "112154.181000", "112154.184000", "112154.187000", "112154.190000", "112154.193000", "112154.196000", "112154.199000", "112154.201000", "112154.204000", "112154.207000", "112154.210000", "112234.120000", "112234.123000", "112234.126000", "112234.129000", "112234.132000", "112234.135000", "112234.137000", "112234.140000", "112234.143000", "112234.146000", "112234.149000", "112234.152000", "112234.155000", "112234.158000", "112234.160000", "112234.163000", "112234.166000", "112234.169000", "112234.172000", "112234.175000", "112234.178000", "112234.181000", "112234.183000", "112234.186000", "112234.189000", "112234.192000", "112234.195000", "112314.120000", "112314.123000", "112314.126000", "112314.129000", "112314.132000", "112314.135000", "112314.137000", "112314.140000", "112314.143000", "112314.146000", "112314.149000", "112314.152000", "112314.155000", "112314.158000", "112314.160000", "112314.164000", "112314.166000", "112314.169000", "112314.172000", "112314.175000", "112314.178000", "112314.181000", "112314.183000", "112314.186000", "112314.189000", "112314.192000", "112314.195000", "112354.120000", "112354.123000", "112354.126000", "112354.129000", "112354.132000", "112354.136000", "112354.139000", "112354.142000", "112354.145000", "112354.147000", "112354.150000", "112354.153000", "112354.156000", "112354.159000", "112354.162000", "112354.165000", "112354.168000", "112354.171000", "112354.173000", "112354.176000", "112354.179000", "112354.182000", "112354.185000", "112354.188000", "112354.191000", "112354.193000", "112434.120000", "112434.123000", "112434.126000", "112434.129000", "112434.132000", "112434.135000", "112434.137000", "112434.140000", "112434.143000", "112434.146000", "112434.149000", "112434.152000", "112434.155000", "112434.157000", "112434.160000", "112434.163000", "112434.166000", "112434.169000", "112434.172000", "112434.175000", "112434.178000", "112434.180000", "112434.183000", "112434.186000", "112434.189000", "112434.192000", "112434.195000", "112438.675000", "112438.678000", "112438.681000"],
