{
  "AcquisitionMatrixPE": 104,
  "AcquisitionNumber": 1,
  "AcquisitionTime": "11:25:29.840000",
  "BandwidthPerPixelPhaseEncode": 17.17,
  "BaseResolution": 104,
  "BodyPartExamined": "BRAIN",
  "CoilString": "HC1-7;NC1_2",
  "ConsistencyInfo": "N4_VE11C_LATEST_20160120",
  "ConversionSoftware": "dcm2niix",
  "ConversionSoftwareVersion": "v1.0.20190902",
  "DerivedVendorReportedEchoSpacing": 0.000560011,
  "DeviceSerialNumber": "167006",
  "DwellTime": 2.1e-06,
  "EchoTime": 0.037,
  "EchoTrainLength": 104,
  "EffectiveEchoSpacing": 0.000560011,
  "FlipAngle": 52,
  "ImageComments": "Unaliased_MB4_PE3_LB",
  "ImageOrientationPatientDICOM": [0.991115, 0.112058, 0.0716577, -0.08462, 0.946865, -0.3103],
  "ImageType": [
    "ORIGINAL",
    "PRIMARY",
    "M",
    "MB",
    "ND",
    "MOSAIC"
],
  "ImagingFrequency": 123.259,
  "InPlanePhaseEncodingDirectionDICOM": "COL",
  "InstitutionAddress": "Chemin_Queen-Mary_4565_Montreal_District_CA_H3W_1W5",
  "InstitutionName": "IUGM",
  "InstitutionalDepartmentName": "Department",
  "MRAcquisitionType": "2D",
  "MagneticFieldStrength": 3,
  "Manufacturer": "Siemens",
  "ManufacturersModelName": "Prisma_fit",
  "Modality": "MR",
  "MultibandAccelerationFactor": 4,
  "PartialFourier": 1,
  "PatientPosition": "HFS",
  "PercentPhaseFOV": 100,
  "PhaseEncodingDirection": "j",
  "PhaseEncodingSteps": 104,
  "PhaseResolution": 1,
  "PixelBandwidth": 2290,
  "ProcedureStepDescription": "games_shinobi",
  "ProtocolName": "func_task-shinobi_run-4",
  "PulseSequenceDetails": "%CustomerSeq%_cmrr_mbep2d_bold",
  "ReceiveCoilActiveElements": "HC1-7;NC1,2",
  "ReceiveCoilName": "HeadNeck_64",
  "ReconMatrixPE": 104,
  "RepetitionTime": 1.49,
  "SAR": 0.0380727,
  "ScanOptions": "FS",
  "ScanningSequence": "EP",
  "SequenceName": "epfid2d1_104",
  "SequenceVariant": "SK_SS",
  "SeriesDescription": "func_task-shinobi_run-4",
  "SeriesNumber": 15,
  "ShimSetting": [637, -7223, -8834, 637, 84, -80, 39, 8],
  "SliceThickness": 2,
  "SliceTiming": [0, 0.7825, 0.0975, 0.88, 0.195, 0.98, 0.2925, 1.0775, 0.39, 1.175, 0.49, 1.2725, 0.5875, 1.37, 0.685, 0, 0.7825, 0.0975, 0.88, 0.195, 0.98, 0.2925, 1.0775, 0.39, 1.175, 0.49, 1.2725, 0.5875, 1.37, 0.685, 0, 0.7825, 0.0975, 0.88, 0.195, 0.98, 0.2925, 1.0775, 0.39, 1.175, 0.49, 1.2725, 0.5875, 1.37, 0.685, 0, 0.7825, 0.0975, 0.88, 0.195, 0.98, 0.2925, 1.0775, 0.39, 1.175, 0.49, 1.2725, 0.5875, 1.37, 0.685],
  "SoftwareVersions": "syngo_MR_E11",
  "SpacingBetweenSlices": 2,
  "StationName": "MRC35049",
  "TaskName": "shinobi",
  "TotalReadoutTime": 0.0576811,
  "TxRefAmp": 243.555,
  "WipMemBlock": "a43a89df-11cf-4b05-8761-fccff7999a9c||Sequence: R016 ve11c/master r/e634e98; Dec 19 2017 11:00:25 by eja",
  "dcmmeta_affine": [
    [-1.9822293519973755, -0.16923999786376953, 0.20524336397647858, 108.90017700195312],
    [-0.22411537170410156, 1.8937301635742188, -0.6029582023620605, -50.59675979614258],
    [0.14331544935703278, 0.6205998063087463, 1.8958683013916016, -61.104530334472656],
    [0.0, 0.0, 0.0, 1.0]
],
  "dcmmeta_reorient_transform": [
    [0.0, -1.0, 0.0, 103.0],
    [1.0, 0.0, 0.0, 0.0],
    [0.0, 0.0, 1.0, 0.0],
    [0.0, 0.0, 0.0, 1.0]
],
  "dcmmeta_shape": [104, 104, 60, 407],
  "dcmmeta_slice_dim": 2,
  "dcmmeta_version": 0.6,
  "global": {
    "const": {
      "AcquisitionMatrix": [104, 0, 0, 104],
      "AngioFlag": "N",
      "BitsAllocated": 16,
      "BitsStored": 16,
      "BodyPartExamined": "BRAIN",
      "Columns": 832,
      "EchoNumbers": 1,
      "EchoTime": 37.0,
      "EchoTrainLength": 104,
      "FlipAngle": 52.0,
      "HighBit": 15,
      "ImageOrientationPatient": [0.99111464799633, 0.1120576861679, 0.07165772462059, -0.0846200018024, 0.94686505598887, -0.3102998888852],
      "ImagePositionPatient": [-751.39656049352, -915.35319687726, 176.5487414378],
      "ImageType": [
        "ORIGINAL",
        "PRIMARY",
        "M",
        "MB",
        "ND",
        "MOSAIC"
],
      "ImagedNucleus": "1H",
      "ImagingFrequency": 123.259309,
      "InPlanePhaseEncodingDirection": "COL",
      "MRAcquisitionType": "2D",
      "MagneticFieldStrength": 3.0,
      "Manufacturer": "SIEMENS",
      "ManufacturerModelName": "Prisma_fit",
      "Modality": "MR",
      "NumberOfAverages": 1.0,
      "NumberOfPhaseEncodingSteps": 104,
      "PercentPhaseFieldOfView": 100.0,
      "PercentSampling": 100.0,
      "PerformedProcedureStepStartTime": "104523.414000",
      "PhotometricInterpretation": "MONOCHROME2",
      "PixelBandwidth": 2290.0,
      "PixelRepresentation": 0,
      "PixelSpacing": [2.0, 2.0],
      "ProtocolName": "func_task-shinobi_run-4",
      "RepetitionTime": 1490.0,
      "Rows": 832,
      "SAR": 0.03807270243049,
      "SamplesPerPixel": 1,
      "ScanOptions": "FS",
      "ScanningSequence": "EP",
      "SequenceName": "epfid2d1_104",
      "SequenceVariant": [
        "SK",
        "SS"
],
      "SeriesDescription": "func_task-shinobi_run-4",
      "SeriesNumber": 15,
      "SeriesTime": "112700.906000",
      "SliceLocation": -31.493686838497,
      "SliceThickness": 2.0,
      "SmallestImagePixelValue": 0,
      "SoftwareVersions": "syngo MR E11",
      "SpacingBetweenSlices": 2.0000000077638,
      "SpecificCharacterSet": "ISO_IR 100",
      "StudyID": "1",
      "StudyTime": "104523.327000",
      "TransmitCoilName": "Body",
      "VariableFlipAngleFlag": "N",
      "WindowCenterWidthExplanation": "Algo1",
      "dBdt": 0.0},
    "slices": {}
  },
  "time": {
    "samples": {
      "AcquisitionNumber": [1, 2, 3, 4, 5, 6, 7, 8, 9, 10, 11, 12, 13, 14, 15, 16, 17, 18, 19, 20, 21, 22, 23, 24, 25, 26, 27, 28, 29, 30, 31, 32, 33, 34, 35, 36, 37, 38, 39, 40, 41, 42, 43, 44, 45, 46, 47, 48, 49, 50, 51, 52, 53, 54, 55, 56, 57, 58, 59, 60, 61, 62, 63, 64, 65, 66, 67, 68, 69, 70, 71, 72, 73, 74, 75, 76, 77, 78, 79, 80, 81, 82, 83, 84, 85, 86, 87, 88, 89, 90, 91, 92, 93, 94, 95, 96, 97, 98, 99, 100, 101, 102, 103, 104, 105, 106, 107, 108, 109, 110, 111, 112, 113, 114, 115, 116, 117, 118, 119, 120, 121, 122, 123, 124, 125, 126, 127, 128, 129, 130, 131, 132, 133, 134, 135, 136, 137, 138, 139, 140, 141, 142, 143, 144, 145, 146, 147, 148, 149, 150, 151, 152, 153, 154, 155, 156, 157, 158, 159, 160, 161, 162, 163, 164, 165, 166, 167, 168, 169, 170, 171, 172, 173, 174, 175, 176, 177, 178, 179, 180, 181, 182, 183, 184, 185, 186, 187, 188, 189, 190, 191, 192, 193, 194, 195, 196, 197, 198, 199, 200, 201, 202, 203, 204, 205, 206, 207, 208, 209, 210, 211, 212, 213, 214, 215, 216, 217, 218, 219, 220, 221, 222, 223, 224, 225, 226, 227, 228, 229, 230, 231, 232, 233, 234, 235, 236, 237, 238, 239, 240, 241, 242, 243, 244, 245, 246, 247, 248, 249, 250, 251, 252, 253, 254, 255, 256, 257, 258, 259, 260, 261, 262, 263, 264, 265, 266, 267, 268, 269, 270, 271, 272, 273, 274, 275, 276, 277, 278, 279, 280, 281, 282, 283, 284, 285, 286, 287, 288, 289, 290, 291, 292, 293, 294, 295, 296, 297, 298, 299, 300, 301, 302, 303, 304, 305, 306, 307, 308, 309, 310, 311, 312, 313, 314, 315, 316, 317, 318, 319, 320, 321, 322, 323, 324, 325, 326, 327, 328, 329, 330, 331, 332, 333, 334, 335, 336, 337, 338, 339, 340, 341, 342, 343, 344, 345, 346, 347, 348, 349, 350, 351, 352, 353, 354, 355, 356, 357, 358, 359, 360, 361, 362, 363, 364, 365, 366, 367, 368, 369, 370, 371, 372, 373, 374, 375, 376, 377, 378, 379, 380, 381, 382, 383, 384, 385, 386, 387, 388, 389, 390, 391, 392, 393, 394, 395, 396, 397, 398, 399, 400, 401, 402, 403, 404, 405, 406, 407],
      "AcquisitionTime": ["112529.840000", "112531.330000", "112532.820000", "112534.310000", "112535.800000", "112537.290000", "112538.780000", "112540.270000", "112541.760000", "112543.250000", "112544.740000", "112546.230000", "112547.720000", "112549.210000", "112550.700000", "112552.190000", "112553.680000", "112555.170000", "112556.660000", "112558.150000", "112559.640000", "112601.130000", "112602.620000", "112604.110000", "112605.600000", "112607.090000", "112608.580000", "112610.070000", "112611.560000", "112613.050000", "112614.540000", "112616.030000", "112617.520000", "112619.010000", "112620.500000", "112621.990000", "112623.480000", "112624.970000", "112626.460000", "112627.950000", "112629.440000", "112630.930000", "112632.420000", "112633.910000", "112635.400000", "112636.890000", "112638.380000", "112639.870000", "112641.360000", "112642.850000", "112644.340000", "112645.830000", "112647.320000", "112648.810000", "112650.300000", "112651.790000", "112653.280000", "112654.770000", "112656.260000", "112657.750000", "112659.240000", "112700.730000", "112702.220000", "112703.710000", "112705.200000", "112706.690000", "112708.180000", "112709.670000", "112711.160000", "112712.650000", "112714.140000", "112715.630000", "112717.120000", "112718.610000", "112720.100000", "112721.590000", "112723.080000", "112724.570000", "112726.060000", "112727.550000", "112729.040000", "112730.530000", "112732.020000", "112733.510000", "112735.000000", "112736.490000", "112737.980000", "112739.470000", "112740.960000", "112742.450000", "112743.940000", "112745.430000", "112746.920000", "112748.410000", "112749.900000", "112751.390000", "112752.880000", "112754.370000", "112755.860000", "112757.350000", "112758.840000", "112800.330000", "112801.820000", "112803.310000", "112804.800000", "112806.290000", "112807.780000", "112809.270000", "112810.760000", "112812.250000", "112813.740000", "112815.230000", "112816.720000", "112818.210000", "112819.700000", "112821.190000", "112822.680000", "112824.170000", "112825.660000", "112827.150000", "112828.640000", "112830.130000", "112831.620000", "112833.110000", "112834.600000", "112836.090000", "112837.580000", "112839.070000", "112840.560000", "112842.050000", "112843.540000", "112845.030000", "112846.520000", "112848.010000", "112849.500000", "112850.990000", "112852.480000", "112853.970000", "112855.460000", "112856.950000", "112858.440000", "112859.930000", "112901.420000", "112902.910000", "112904.400000", "112905.890000", "112907.380000", "112908.870000", "112910.360000", "112911.850000", "112913.340000", "112914.830000", "112916.320000", "112917.810000", "112919.300000", "112920.790000", "112922.280000", "112923.770000", "112925.260000", "112926.750000", "112928.240000", "112929.730000", "112931.220000", "112932.710000", "112934.200000", "112935.690000", "112937.180000", "112938.670000", "112940.160000", "112941.650000", "112943.140000", "112944.630000", "112946.120000", "112947.610000", "112949.100000", "112950.590000", "112952.080000", "112953.570000", "112955.060000", "112956.550000", "112958.040000", "112959.530000", "113001.020000", "113002.510000", "113004.000000", "113005.490000", "113006.980000", "113008.470000", "113009.960000", "113011.450000", "113012.940000", "113014.430000", "113015.920000", "113017.410000", "113018.900000", "113020.390000", "113021.880000", "113023.370000", "113024.860000", "113026.350000", "113027.840000", "113029.330000", "113030.820000", "113032.310000", "113033.800000", "113035.290000", "113036.780000", "113038.270000", "113039.760000", "113041.250000", "113042.740000", "113044.230000", "113045.720000", "113047.210000", "113048.700000", "113050.190000", "113051.680000", "113053.170000", "113054.660000", "113056.150000", "113057.640000", "113059.130000", "113100.620000", "113102.110000", "113103.600000", "113105.090000", "113106.580000", "113108.070000", "113109.560000", "113111.050000", "113112.540000", "113114.030000", "113115.520000", "113117.010000", "113118.500000", "113119.990000", "113121.480000", "113122.970000", "113124.460000", "113125.950000", "113127.440000", "113128.930000", "113130.420000", "113131.910000", "113133.400000", "113134.890000", "113136.380000", "113137.870000", "113139.360000", "113140.850000", "113142.340000", "113143.830000", "113145.320000", "113146.810000", "113148.300000", "113149.790000", "113151.280000", "113152.770000", "113154.260000", "113155.750000", "113157.240000", "113158.730000", "113200.220000", "113201.710000", "113203.200000", "113204.690000", "113206.180000", "113207.670000", "113209.160000", "113210.650000", "113212.140000", "113213.630000", "113215.120000", "113216.610000", "113218.100000", "113219.590000", "113221.080000", "113222.570000", "113224.060000", "113225.550000", "113227.040000", "113228.530000", "113230.020000", "113231.510000", "113233.000000", "113234.490000", "113235.980000", "113237.470000", "113238.960000", "113240.450000", "113241.940000", "113243.430000", "113244.920000", "113246.410000", "113247.900000", "113249.390000", "113250.880000", "113252.370000", "113253.860000", "113255.350000", "113256.840000", "113258.330000", "113259.820000", "113301.310000", "113302.800000", "113304.290000", "113305.780000", "113307.270000", "113308.760000", "113310.250000", "113311.740000", "113313.230000", "113314.720000", "113316.210000", "113317.700000", "113319.190000", "113320.680000", "113322.170000", "113323.660000", "113325.150000", "113326.640000", "113328.130000", "113329.620000", "113331.110000", "113332.600000", "113334.090000", "113335.580000", "113337.070000", "113338.560000", "113340.050000", "113341.540000", "113343.030000", "113344.520000", "113346.010000", "113347.500000", "113348.990000", "113350.480000", "113351.970000", "113353.460000", "113354.950000", "113356.440000", "113357.930000", "113359.420000", "113400.910000", "113402.400000", "113403.890000", "113405.380000", "113406.870000", "113408.360000", "113409.850000", "113411.340000", "113412.830000", "113414.320000", "113415.810000", "113417.300000", "113418.790000", "113420.280000", "113421.770000", "113423.260000", "113424.750000", "113426.240000", "113427.730000", "113429.220000", "113430.710000", "113432.200000", "113433.690000", "113435.180000", "113436.670000", "113438.160000", "113439.650000", "113441.140000", "113442.630000", "113444.120000", "113445.610000", "113447.100000", "113448.590000", "113450.080000", "113451.570000", "113453.060000", "113454.550000", "113456.040000", "113457.530000", "113459.020000", "113500.510000", "113502.000000", "113503.490000", "113504.980000", "113506.470000", "113507.960000", "113509.450000", "113510.940000", "113512.430000", "113513.920000", "113515.410000", "113516.900000", "113518.390000", "113519.880000", "113521.370000", "113522.860000", "113524.350000", "113525.840000", "113527.330000", "113528.820000", "113530.310000", "113531.800000", "113533.290000", "113534.780000"],
      "ContentTime": ["112700.909000", "112700.916000", "112700.919000", "112700.921000", "112700.924000", "112700.927000", "112700.930000", "112700.933000", "112700.936000", "112700.938000", "112700.941000", "112700.944000", "112700.947000", "112700.950000", "112700.953000", "112700.956000", "112700.958000", "112700.961000", "112700.964000", "112700.972000", "112700.975000", "112700.977000", "112700.980000", "112700.983000", "112700.986000", "112700.989000", "112700.992000", "112700.995000", "112700.997000", "112701.001000", "112701.004000", "112701.007000", "112701.010000", "112701.013000", "112701.015000", "112701.018000", "112701.021000", "112701.024000", "112720.877000", "112720.880000", "112720.883000", "112720.885000", "112720.888000", "112720.891000", "112720.894000", "112720.897000", "112720.900000", "112720.903000", "112720.905000", "112720.908000", "112720.911000", "112720.914000", "112720.917000", "112720.919000", "112720.922000", "112720.925000", "112720.928000", "112720.931000", "112740.877000", "112740.880000", "112740.883000", "112740.885000", "112740.888000", "112740.891000", "112740.894000", "112740.897000", "112740.899000", "112740.902000", "112740.905000", "112740.908000", "112740.911000", "112740.913000", "112740.916000", "112740.919000", "112740.922000", "112740.924000", "112740.927000", "112740.930000", "112800.877000", "112800.880000", "112800.883000", "112800.885000", "112800.888000", "112800.891000", "112800.894000", "112800.897000", "112800.899000", "112800.902000", "112800.905000", "112800.908000", "112800.911000", "112800.913000", "112800.916000", "112800.919000", "112800.922000", "112800.925000", "112800.927000", "112800.930000", "112800.933000", "112840.876000", "112840.879000", "112840.882000", "112840.885000", "112840.887000", "112840.890000", "112840.893000", "112840.896000", "112840.899000", "112840.901000", "112840.904000", "112840.907000", "112840.910000", "112840.913000", "112840.915000", "112840.918000", "112840.921000", "112840.924000", "112840.927000", "112840.930000", "112840.933000", "112840.935000", "112840.938000", "112840.941000", "112840.944000", "112840.947000", "112840.949000", "112840.952000", "112920.877000", "112920.880000", "112920.883000", "112920.885000", "112920.888000", "112920.891000", "112920.894000", "112920.897000", "112920.899000", "112920.902000", "112920.905000", "112920.908000", "112920.911000", "112920.913000", "112920.916000", "112920.919000", "112920.922000", "112920.925000", "112920.927000", "112920.935000", "112920.938000", "112920.941000", "112920.944000", "112920.947000", "112920.950000", "112920.952000", "112920.955000", "113000.877000", "113000.880000", "113000.883000", "113000.886000", "113000.889000", "113000.891000", "113000.895000", "113000.897000", "113000.900000", "113000.903000", "113000.906000", "113000.909000", "113000.912000", "113000.914000", "113000.917000", "113000.920000", "113000.923000", "113000.926000", "113000.929000", "113000.932000", "113000.935000", "113000.937000", "113000.940000", "113000.943000", "113000.946000", "113000.949000", "113000.952000", "113040.877000", "113040.880000", "113040.883000", "113040.886000", "113040.889000", "113040.891000", "113040.894000", "113040.897000", "113040.900000", "113040.903000", "113040.906000", "113040.910000", "113040.912000", "113040.915000", "113040.918000", "113040.921000", "113040.924000", "113040.927000", "113040.930000", "113040.932000", "113040.935000", "113040.938000", "113040.941000", "113040.944000", "113040.947000", "113040.950000", "113040.952000", "113120.877000", "113120.880000", "113120.883000", "113120.885000", "113120.888000", "113120.891000", "113120.894000", "113120.897000", "113120.900000", "113120.903000", "113120.906000", "113120.908000", "113120.911000", "113120.914000", "113120.917000", "113120.920000", "113120.923000", "113120.926000", "113120.928000", "113120.931000", "113120.934000", "113120.937000", "113120.940000", "113120.943000", "113120.946000", "113120.949000", "113120.951000", "113200.877000", "113200.880000", "113200.883000", "113200.886000", "113200.889000", "113200.892000", "113200.895000", "113200.898000", "113200.901000", "113200.904000", "113200.906000", "113200.912000", "113200.915000", "113200.918000", "113200.920000", "113200.923000", "113200.926000", "113200.929000", "113200.932000", "113200.935000", "113200.938000", "113200.941000", "113200.944000", "113200.947000", "113200.950000", "113200.952000", "113200.955000", "113240.877000", "113240.880000", "113240.883000", "113240.885000", "113240.888000", "113240.891000", "113240.894000", "113240.897000", "113240.900000", "113240.903000", "113240.906000", "113240.909000", "113240.912000", "113240.915000", "113240.918000", "113240.921000", "113240.924000", "113240.927000", "113240.929000", "113240.932000", "113240.935000", "113240.938000", "113240.941000", "113240.944000", "113240.946000", "113240.949000", "113320.876000", "113320.879000", "113320.882000", "113320.884000", "113320.887000", "113320.890000", "113320.893000", "113320.896000", "113320.899000", "113320.902000", "113320.905000", "113320.908000", "113320.911000", "113320.913000", "113320.916000", "113320.919000", "113320.922000", "113320.925000", "113320.927000", "113320.930000", "113320.933000", "113320.936000", "113320.939000", "113320.942000", "113320.945000", "113320.947000", "113320.950000", "113400.877000", "113400.880000", "113400.883000", "113400.886000", "113400.889000", "113400.891000", "113400.894000", "113400.897000", "113400.900000", "113400.903000", "113400.906000", "113400.909000", "113400.911000", "113400.914000", "113400.917000", "113400.920000", "113400.923000", "113400.926000", "113400.929000", "113400.932000", "113400.935000", "113400.938000", "113400.940000", "113400.943000", "113400.946000", "113400.949000", "113400.952000", "113440.877000", "113440.880000", "113440.883000", "113440.886000", "113440.889000", "113440.892000", "113440.895000", "113440.898000", "113440.901000", "113440.904000", "113440.907000", "113440.909000", "113440.912000", "113440.915000", "113440.918000", "113440.921000", "113440.924000", "113440.927000", "113440.929000", "113440.932000", "113440.935000", "113440.938000", "113440.941000", "113440.944000", "113440.946000", "113440.949000", "113440.952000", "113520.876000", "113520.879000", "113520.882000", "113520.885000", "113520.887000", "113520.890000", "113520.893000", "113520.896000", "113520.899000", "113520.902000", "113520.905000", "113520.908000", "113520.910000", "113520.913000", "113520.916000", "113520.919000", "113520.922000", "113520.925000", "113520.928000", "113520.931000", "113520.933000", "113520.936000", "113520.939000", "113520.942000", "113520.945000", "113520.948000", "113520.950000", "113538.255000", "113538.259000", "113538.262000", "113538.265000", "113538.268000", "113538.270000", "113538.274000", "113538.276000", "113538.280000", "113538.282000", "113538.285000"],
      "InstanceCreationTime": ["112700.909000", "112700.916000", "112700.919000", "112700.921000", "112700.924000", "112700.927000", "112700.930000", "112700.933000", "112700.936000", "112700.938000", "112700.941000", "112700.944000", "112700.947000", "112700.950000", "112700.953000", "112700.956000", "112700.958000", "112700.961000", "112700.964000", "112700.972000", "112700.975000", "112700.977000", "112700.980000", "112700.983000", "112700.986000", "112700.989000", "112700.992000", "112700.995000", "112700.997000", "112701.001000", "112701.004000", "112701.007000", "112701.010000", "112701.013000", "112701.015000", "112701.018000", "112701.021000", "112701.024000", "112720.877000", "112720.880000", "112720.883000", "112720.885000", "112720.888000", "112720.891000", "112720.894000", "112720.897000", "112720.900000", "112720.903000", "112720.905000", "112720.908000", "112720.911000", "112720.914000", "112720.917000", "112720.919000", "112720.922000", "112720.925000", "112720.928000", "112720.931000", "112740.877000", "112740.880000", "112740.883000", "112740.885000", "112740.888000", "112740.891000", "112740.894000", "112740.897000", "112740.899000", "112740.902000", "112740.905000", "112740.908000", "112740.911000", "112740.913000", "112740.916000", "112740.919000", "112740.922000", "112740.924000", "112740.927000", "112740.930000", "112800.877000", "112800.880000", "112800.883000", "112800.885000", "112800.888000", "112800.891000", "112800.894000", "112800.897000", "112800.899000", "112800.902000", "112800.905000", "112800.908000", "112800.911000", "112800.913000", "112800.916000", "112800.919000", "112800.922000", "112800.925000", "112800.927000", "112800.930000", "112800.933000", "112840.876000", "112840.879000", "112840.882000", "112840.885000", "112840.887000", "112840.890000", "112840.893000", "112840.896000", "112840.899000", "112840.901000", "112840.904000", "112840.907000", "112840.910000", "112840.913000", "112840.915000", "112840.918000", "112840.921000", "112840.924000", "112840.927000", "112840.930000", "112840.933000", "112840.935000", "112840.938000", "112840.941000", "112840.944000", "112840.947000", "112840.949000", "112840.952000", "112920.877000", "112920.880000", "112920.883000", "112920.885000", "112920.888000", "112920.891000", "112920.894000", "112920.897000", "112920.899000", "112920.902000", "112920.905000", "112920.908000", "112920.911000", "112920.913000", "112920.916000", "112920.919000", "112920.922000", "112920.925000", "112920.927000", "112920.935000", "112920.938000", "112920.941000", "112920.944000", "112920.947000", "112920.950000", "112920.952000", "112920.955000", "113000.877000", "113000.880000", "113000.883000", "113000.886000", "113000.889000", "113000.891000", "113000.895000", "113000.897000", "113000.900000", "113000.903000", "113000.906000", "113000.909000", "113000.912000", "113000.914000", "113000.917000", "113000.920000", "113000.923000", "113000.926000", "113000.929000", "113000.932000", "113000.935000", "113000.937000", "113000.940000", "113000.943000", "113000.946000", "113000.949000", "113000.952000", "113040.877000", "113040.880000", "113040.883000", "113040.886000", "113040.889000", "113040.891000", "113040.894000", "113040.897000", "113040.900000", "113040.903000", "113040.906000", "113040.910000", "113040.912000", "113040.915000", "113040.918000", "113040.921000", "113040.924000", "113040.927000", "113040.930000", "113040.932000", "113040.935000", "113040.938000", "113040.941000", "113040.944000", "113040.947000", "113040.950000", "113040.952000", "113120.877000", "113120.880000", "113120.883000", "113120.885000", "113120.888000", "113120.891000", "113120.894000", "113120.897000", "113120.900000", "113120.903000", "113120.906000", "113120.908000", "113120.911000", "113120.914000", "113120.917000", "113120.920000", "113120.923000", "113120.926000", "113120.928000", "113120.931000", "113120.934000", "113120.937000", "113120.940000", "113120.943000", "113120.946000", "113120.949000", "113120.951000", "113200.877000", "113200.880000", "113200.883000", "113200.886000", "113200.889000", "113200.892000", "113200.895000", "113200.898000", "113200.901000", "113200.904000", "113200.906000", "113200.912000", "113200.915000", "113200.918000", "113200.920000", "113200.923000", "113200.926000", "113200.929000", "113200.932000", "113200.935000", "113200.938000", "113200.941000", "113200.944000", "113200.947000", "113200.950000", "113200.952000", "113200.955000", "113240.877000", "113240.880000", "113240.883000", "113240.885000", "113240.888000", "113240.891000", "113240.894000", "113240.897000", "113240.900000", "113240.903000", "113240.906000", "113240.909000", "113240.912000", "113240.915000", "113240.918000", "113240.921000", "113240.924000", "113240.927000", "113240.929000", "113240.932000", "113240.935000", "113240.938000", "113240.941000", "113240.944000", "113240.946000", "113240.949000", "113320.876000", "113320.879000", "113320.882000", "113320.884000", "113320.887000", "113320.890000", "113320.893000", "113320.896000", "113320.899000", "113320.902000", "113320.905000", "113320.908000", "113320.911000", "113320.913000", "113320.916000", "113320.919000", "113320.922000", "113320.925000", "113320.927000", "113320.930000", "113320.933000", "113320.936000", "113320.939000", "113320.942000", "113320.945000", "113320.947000", "113320.950000", "113400.877000", "113400.880000", "113400.883000", "113400.886000", "113400.889000", "113400.891000", "113400.894000", "113400.897000", "113400.900000", "113400.903000", "113400.906000", "113400.909000", "113400.911000", "113400.914000", "113400.917000", "113400.920000", "113400.923000", "113400.926000", "113400.929000", "113400.932000", "113400.935000", "113400.938000", "113400.940000", "113400.943000", "113400.946000", "113400.949000", "113400.952000", "113440.877000", "113440.880000", "113440.883000", "113440.886000", "113440.889000", "113440.892000", "113440.895000", "113440.898000", "113440.901000", "113440.904000", "113440.907000", "113440.909000", "113440.912000", "113440.915000", "113440.918000", "113440.921000", "113440.924000", "113440.927000", "113440.929000", "113440.932000", "113440.935000", "113440.938000", "113440.941000", "113440.944000", "113440.946000", "113440.949000", "113440.952000", "113520.876000", "113520.879000", "113520.882000", "113520.885000", "113520.887000", "113520.890000", "113520.893000", "113520.896000", "113520.899000", "113520.902000", "113520.905000", "113520.908000", "113520.910000", "113520.913000", "113520.916000", "113520.919000", "113520.922000", "113520.925000", "113520.928000", "113520.931000", "113520.933000", "113520.936000", "113520.939000", "113520.942000", "113520.945000", "113520.948000", "113520.950000", "113538.255000", "113538.259000", "113538.262000", "113538.265000", "113538.268000", "113538.270000", "113538.274000", "113538.276000", "113538.280000", "113538.282000", "113538.285000"],
