{
  "AcquisitionMatrixPE": 104,
  "AcquisitionNumber": 1,
  "AcquisitionTime": "11:01:17.437500",
  "BandwidthPerPixelPhaseEncode": 17.17,
  "BaseResolution": 104,
  "BodyPartExamined": "BRAIN",
  "CoilString": "HC1-7;NC1_2",
  "ConsistencyInfo": "N4_VE11C_LATEST_20160120",
  "ConversionSoftware": "dcm2niix",
  "ConversionSoftwareVersion": "v1.0.20190902",
  "DerivedVendorReportedEchoSpacing": 0.000560011,
  "DeviceSerialNumber": "167006",
  "DwellTime": 2.1e-06,
  "EchoTime": 0.037,
  "EchoTrainLength": 104,
  "EffectiveEchoSpacing": 0.000560011,
  "FlipAngle": 52,
  "ImageComments": "Unaliased_MB4_PE3_LB",
  "ImageOrientationPatientDICOM": [0.991115, 0.112058, 0.0716577, -0.08462, 0.946865, -0.3103],
  "ImageType": [
    "ORIGINAL",
    "PRIMARY",
    "M",
    "MB",
    "ND",
    "MOSAIC"
],
  "ImagingFrequency": 123.259,
  "InPlanePhaseEncodingDirectionDICOM": "COL",
  "InstitutionAddress": "Chemin_Queen-Mary_4565_Montreal_District_CA_H3W_1W5",
  "InstitutionName": "IUGM",
  "InstitutionalDepartmentName": "Department",
  "MRAcquisitionType": "2D",
  "MagneticFieldStrength": 3,
  "Manufacturer": "Siemens",
  "ManufacturersModelName": "Prisma_fit",
  "Modality": "MR",
  "MultibandAccelerationFactor": 4,
  "PartialFourier": 1,
  "PatientPosition": "HFS",
  "PercentPhaseFOV": 100,
  "PhaseEncodingDirection": "j",
  "PhaseEncodingSteps": 104,
  "PhaseResolution": 1,
  "PixelBandwidth": 2290,
  "ProcedureStepDescription": "games_shinobi",
  "ProtocolName": "func_task-shinobi_run-2",
  "PulseSequenceDetails": "%CustomerSeq%_cmrr_mbep2d_bold",
  "ReceiveCoilActiveElements": "HC1-7;NC1,2",
  "ReceiveCoilName": "HeadNeck_64",
  "ReconMatrixPE": 104,
  "RepetitionTime": 1.49,
  "SAR": 0.0380727,
  "ScanOptions": "FS",
  "ScanningSequence": "EP",
  "SequenceName": "epfid2d1_104",
  "SequenceVariant": "SK_SS",
  "SeriesDescription": "func_task-shinobi_run-2",
  "SeriesNumber": 11,
  "ShimSetting": [637, -7223, -8834, 637, 84, -80, 39, 8],
  "SliceThickness": 2,
  "SliceTiming": [0, 0.7825, 0.0975, 0.88, 0.195, 0.98, 0.2925, 1.0775, 0.39, 1.175, 0.49, 1.2725, 0.5875, 1.37, 0.685, 0, 0.7825, 0.0975, 0.88, 0.195, 0.98, 0.2925, 1.0775, 0.39, 1.175, 0.49, 1.2725, 0.5875, 1.37, 0.685, 0, 0.7825, 0.0975, 0.88, 0.195, 0.98, 0.2925, 1.0775, 0.39, 1.175, 0.49, 1.2725, 0.5875, 1.37, 0.685, 0, 0.7825, 0.0975, 0.88, 0.195, 0.98, 0.2925, 1.0775, 0.39, 1.175, 0.49, 1.2725, 0.5875, 1.37, 0.685],
  "SoftwareVersions": "syngo_MR_E11",
  "SpacingBetweenSlices": 2,
  "StationName": "MRC35049",
  "TaskName": "shinobi",
  "TotalReadoutTime": 0.0576811,
  "TxRefAmp": 243.555,
  "WipMemBlock": "0a67ee3c-d6e7-43db-8ca2-67c370a7d704||Sequence: R016 ve11c/master r/e634e98; Dec 19 2017 11:00:25 by eja",
  "dcmmeta_affine": [
    [-1.9822293519973755, -0.16923999786376953, 0.20524336397647858, 108.90017700195312],
    [-0.22411537170410156, 1.8937301635742188, -0.6029582023620605, -50.59675979614258],
    [0.14331544935703278, 0.6205998063087463, 1.8958683013916016, -61.104530334472656],
    [0.0, 0.0, 0.0, 1.0]
],
  "dcmmeta_reorient_transform": [
    [0.0, -1.0, 0.0, 103.0],
    [1.0, 0.0, 0.0, 0.0],
    [0.0, 0.0, 1.0, 0.0],
    [0.0, 0.0, 0.0, 1.0]
],
  "dcmmeta_shape": [104, 104, 60, 491],
  "dcmmeta_slice_dim": 2,
  "dcmmeta_version": 0.6,
  "global": {
    "const": {
      "AcquisitionMatrix": [104, 0, 0, 104],
      "AngioFlag": "N",
      "BitsAllocated": 16,
      "BitsStored": 16,
      "BodyPartExamined": "BRAIN",
      "Columns": 832,
      "EchoNumbers": 1,
      "EchoTime": 37.0,
      "EchoTrainLength": 104,
      "FlipAngle": 52.0,
      "HighBit": 15,
      "ImageOrientationPatient": [0.99111464799633, 0.1120576861679, 0.07165772462059, -0.0846200018024, 0.94686505598887, -0.3102998888852],
      "ImagePositionPatient": [-751.39656049352, -915.35319687726, 176.5487414378],
      "ImageType": [
        "ORIGINAL",
        "PRIMARY",
        "M",
        "MB",
        "ND",
        "MOSAIC"
],
      "ImagedNucleus": "1H",
      "ImagingFrequency": 123.259304,
      "InPlanePhaseEncodingDirection": "COL",
      "MRAcquisitionType": "2D",
      "MagneticFieldStrength": 3.0,
      "Manufacturer": "SIEMENS",
      "ManufacturerModelName": "Prisma_fit",
      "Modality": "MR",
      "NumberOfAverages": 1.0,
      "NumberOfPhaseEncodingSteps": 104,
      "PercentPhaseFieldOfView": 100.0,
      "PercentSampling": 100.0,
      "PerformedProcedureStepStartTime": "104523.414000",
      "PhotometricInterpretation": "MONOCHROME2",
      "PixelBandwidth": 2290.0,
      "PixelRepresentation": 0,
      "PixelSpacing": [2.0, 2.0],
      "ProtocolName": "func_task-shinobi_run-2",
      "RepetitionTime": 1490.0,
      "Rows": 832,
      "SAR": 0.03807270243049,
      "SamplesPerPixel": 1,
      "ScanOptions": "FS",
      "ScanningSequence": "EP",
      "SequenceName": "epfid2d1_104",
      "SequenceVariant": [
        "SK",
        "SS"
],
      "SeriesDescription": "func_task-shinobi_run-2",
      "SeriesNumber": 11,
      "SeriesTime": "110234.636000",
      "SliceLocation": -31.493686838497,
      "SliceThickness": 2.0,
      "SmallestImagePixelValue": 0,
      "SoftwareVersions": "syngo MR E11",
      "SpacingBetweenSlices": 2.0000000077638,
      "SpecificCharacterSet": "ISO_IR 100",
      "StudyID": "1",
      "StudyTime": "104523.327000",
      "TransmitCoilName": "Body",
      "VariableFlipAngleFlag": "N",
      "WindowCenterWidthExplanation": "Algo1",
      "dBdt": 0.0},
    "slices": {}
  },
  "time": {
    "samples": {
      "AcquisitionNumber": [1, 2, 3, 4, 5, 6, 7, 8, 9, 10, 11, 12, 13, 14, 15, 16, 17, 18, 19, 20, 21, 22, 23, 24, 25, 26, 27, 28, 29, 30, 31, 32, 33, 34, 35, 36, 37, 38, 39, 40, 41, 42, 43, 44, 45, 46, 47, 48, 49, 50, 51, 52, 53, 54, 55, 56, 57, 58, 59, 60, 61, 62, 63, 64, 65, 66, 67, 68, 69, 70, 71, 72, 73, 74, 75, 76, 77, 78, 79, 80, 81, 82, 83, 84, 85, 86, 87, 88, 89, 90, 91, 92, 93, 94, 95, 96, 97, 98, 99, 100, 101, 102, 103, 104, 105, 106, 107, 108, 109, 110, 111, 112, 113, 114, 115, 116, 117, 118, 119, 120, 121, 122, 123, 124, 125, 126, 127, 128, 129, 130, 131, 132, 133, 134, 135, 136, 137, 138, 139, 140, 141, 142, 143, 144, 145, 146, 147, 148, 149, 150, 151, 152, 153, 154, 155, 156, 157, 158, 159, 160, 161, 162, 163, 164, 165, 166, 167, 168, 169, 170, 171, 172, 173, 174, 175, 176, 177, 178, 179, 180, 181, 182, 183, 184, 185, 186, 187, 188, 189, 190, 191, 192, 193, 194, 195, 196, 197, 198, 199, 200, 201, 202, 203, 204, 205, 206, 207, 208, 209, 210, 211, 212, 213, 214, 215, 216, 217, 218, 219, 220, 221, 222, 223, 224, 225, 226, 227, 228, 229, 230, 231, 232, 233, 234, 235, 236, 237, 238, 239, 240, 241, 242, 243, 244, 245, 246, 247, 248, 249, 250, 251, 252, 253, 254, 255, 256, 257, 258, 259, 260, 261, 262, 263, 264, 265, 266, 267, 268, 269, 270, 271, 272, 273, 274, 275, 276, 277, 278, 279, 280, 281, 282, 283, 284, 285, 286, 287, 288, 289, 290, 291, 292, 293, 294, 295, 296, 297, 298, 299, 300, 301, 302, 303, 304, 305, 306, 307, 308, 309, 310, 311, 312, 313, 314, 315, 316, 317, 318, 319, 320, 321, 322, 323, 324, 325, 326, 327, 328, 329, 330, 331, 332, 333, 334, 335, 336, 337, 338, 339, 340, 341, 342, 343, 344, 345, 346, 347, 348, 349, 350, 351, 352, 353, 354, 355, 356, 357, 358, 359, 360, 361, 362, 363, 364, 365, 366, 367, 368, 369, 370, 371, 372, 373, 374, 375, 376, 377, 378, 379, 380, 381, 382, 383, 384, 385, 386, 387, 388, 389, 390, 391, 392, 393, 394, 395, 396, 397, 398, 399, 400, 401, 402, 403, 404, 405, 406, 407, 408, 409, 410, 411, 412, 413, 414, 415, 416, 417, 418, 419, 420, 421, 422, 423, 424, 425, 426, 427, 428, 429, 430, 431, 432, 433, 434, 435, 436, 437, 438, 439, 440, 441, 442, 443, 444, 445, 446, 447, 448, 449, 450, 451, 452, 453, 454, 455, 456, 457, 458, 459, 460, 461, 462, 463, 464, 465, 466, 467, 468, 469, 470, 471, 472, 473, 474, 475, 476, 477, 478, 479, 480, 481, 482, 483, 484, 485, 486, 487, 488, 489, 490, 491],
      "AcquisitionTime": ["110117.437500", "110118.927500", "110120.417500", "110121.907500", "110123.397500", "110124.887500", "110126.377500", "110127.867500", "110129.357500", "110130.847500", "110132.337500", "110133.827500", "110135.317500", "110136.807500", "110138.297500", "110139.787500", "110141.277500", "110142.767500", "110144.257500", "110145.747500", "110147.237500", "110148.727500", "110150.217500", "110151.707500", "110153.197500", "110154.687500", "110156.177500", "110157.667500", "110159.157500", "110200.647500", "110202.137500", "110203.627500", "110205.117500", "110206.607500", "110208.097500", "110209.587500", "110211.077500", "110212.567500", "110214.057500", "110215.547500", "110217.037500", "110218.527500", "110220.017500", "110221.507500", "110222.997500", "110224.487500", "110225.977500", "110227.467500", "110228.957500", "110230.447500", "110231.937500", "110233.427500", "110234.917500", "110236.407500", "110237.897500", "110239.387500", "110240.877500", "110242.367500", "110243.857500", "110245.347500", "110246.837500", "110248.327500", "110249.817500", "110251.307500", "110252.797500", "110254.287500", "110255.777500", "110257.267500", "110258.757500", "110300.247500", "110301.737500", "110303.227500", "110304.717500", "110306.207500", "110307.697500", "110309.187500", "110310.677500", "110312.167500", "110313.657500", "110315.147500", "110316.637500", "110318.127500", "110319.617500", "110321.107500", "110322.597500", "110324.087500", "110325.577500", "110327.067500", "110328.557500", "110330.047500", "110331.537500", "110333.027500", "110334.517500", "110336.007500", "110337.497500", "110338.987500", "110340.477500", "110341.967500", "110343.457500", "110344.947500", "110346.437500", "110347.927500", "110349.417500", "110350.907500", "110352.397500", "110353.887500", "110355.377500", "110356.867500", "110358.357500", "110359.847500", "110401.337500", "110402.827500", "110404.317500", "110405.807500", "110407.297500", "110408.787500", "110410.277500", "110411.767500", "110413.257500", "110414.747500", "110416.237500", "110417.727500", "110419.217500", "110420.707500", "110422.197500", "110423.687500", "110425.177500", "110426.667500", "110428.157500", "110429.647500", "110431.137500", "110432.627500", "110434.117500", "110435.607500", "110437.097500", "110438.587500", "110440.077500", "110441.567500", "110443.057500", "110444.547500", "110446.037500", "110447.527500", "110449.017500", "110450.507500", "110451.997500", "110453.487500", "110454.977500", "110456.467500", "110457.957500", "110459.447500", "110500.937500", "110502.427500", "110503.917500", "110505.407500", "110506.897500", "110508.387500", "110509.877500", "110511.367500", "110512.857500", "110514.347500", "110515.837500", "110517.327500", "110518.817500", "110520.307500", "110521.797500", "110523.287500", "110524.777500", "110526.267500", "110527.757500", "110529.247500", "110530.737500", "110532.227500", "110533.717500", "110535.207500", "110536.697500", "110538.187500", "110539.677500", "110541.167500", "110542.657500", "110544.147500", "110545.637500", "110547.127500", "110548.617500", "110550.107500", "110551.597500", "110553.087500", "110554.577500", "110556.067500", "110557.557500", "110559.047500", "110600.537500", "110602.027500", "110603.517500", "110605.007500", "110606.497500", "110607.987500", "110609.477500", "110610.967500", "110612.457500", "110613.947500", "110615.437500", "110616.927500", "110618.417500", "110619.907500", "110621.397500", "110622.887500", "110624.377500", "110625.867500", "110627.357500", "110628.847500", "110630.337500", "110631.827500", "110633.317500", "110634.807500", "110636.297500", "110637.787500", "110639.277500", "110640.767500", "110642.257500", "110643.747500", "110645.237500", "110646.727500", "110648.217500", "110649.707500", "110651.197500", "110652.687500", "110654.177500", "110655.667500", "110657.157500", "110658.647500", "110700.137500", "110701.627500", "110703.117500", "110704.607500", "110706.097500", "110707.587500", "110709.077500", "110710.567500", "110712.057500", "110713.547500", "110715.037500", "110716.527500", "110718.017500", "110719.507500", "110720.997500", "110722.487500", "110723.977500", "110725.467500", "110726.957500", "110728.447500", "110729.937500", "110731.427500", "110732.917500", "110734.407500", "110735.897500", "110737.387500", "110738.877500", "110740.367500", "110741.857500", "110743.347500", "110744.837500", "110746.327500", "110747.817500", "110749.307500", "110750.797500", "110752.287500", "110753.777500", "110755.267500", "110756.757500", "110758.247500", "110759.737500", "110801.227500", "110802.717500", "110804.207500", "110805.697500", "110807.187500", "110808.677500", "110810.167500", "110811.657500", "110813.147500", "110814.637500", "110816.127500", "110817.617500", "110819.107500", "110820.597500", "110822.087500", "110823.577500", "110825.067500", "110826.557500", "110828.047500", "110829.537500", "110831.027500", "110832.517500", "110834.007500", "110835.497500", "110836.987500", "110838.477500", "110839.967500", "110841.457500", "110842.947500", "110844.437500", "110845.927500", "110847.417500", "110848.907500", "110850.397500", "110851.887500", "110853.377500", "110854.867500", "110856.357500", "110857.847500", "110859.337500", "110900.827500", "110902.317500", "110903.807500", "110905.297500", "110906.787500", "110908.277500", "110909.767500", "110911.257500", "110912.747500", "110914.237500", "110915.727500", "110917.217500", "110918.707500", "110920.197500", "110921.687500", "110923.177500", "110924.667500", "110926.157500", "110927.647500", "110929.137500", "110930.627500", "110932.117500", "110933.607500", "110935.097500", "110936.587500", "110938.077500", "110939.567500", "110941.057500", "110942.547500", "110944.037500", "110945.527500", "110947.017500", "110948.507500", "110949.997500", "110951.487500", "110952.977500", "110954.467500", "110955.957500", "110957.447500", "110958.937500", "111000.427500", "111001.917500", "111003.407500", "111004.897500", "111006.387500", "111007.877500", "111009.367500", "111010.857500", "111012.347500", "111013.837500", "111015.327500", "111016.817500", "111018.307500", "111019.797500", "111021.287500", "111022.777500", "111024.267500", "111025.757500", "111027.247500", "111028.737500", "111030.227500", "111031.717500", "111033.207500", "111034.697500", "111036.187500", "111037.677500", "111039.167500", "111040.657500", "111042.147500", "111043.637500", "111045.127500", "111046.617500", "111048.107500", "111049.597500", "111051.087500", "111052.577500", "111054.067500", "111055.557500", "111057.047500", "111058.537500", "111100.027500", "111101.517500", "111103.007500", "111104.497500", "111105.987500", "111107.477500", "111108.967500", "111110.457500", "111111.947500", "111113.437500", "111114.927500", "111116.417500", "111117.907500", "111119.397500", "111120.887500", "111122.377500", "111123.867500", "111125.357500", "111126.847500", "111128.337500", "111129.827500", "111131.317500", "111132.807500", "111134.297500", "111135.787500", "111137.277500", "111138.767500", "111140.257500", "111141.747500", "111143.237500", "111144.727500", "111146.217500", "111147.707500", "111149.197500", "111150.687500", "111152.177500", "111153.667500", "111155.157500", "111156.647500", "111158.137500", "111159.627500", "111201.117500", "111202.607500", "111204.097500", "111205.587500", "111207.077500", "111208.567500", "111210.057500", "111211.547500", "111213.037500", "111214.527500", "111216.017500", "111217.507500", "111218.997500", "111220.487500", "111221.977500", "111223.467500", "111224.957500", "111226.447500", "111227.937500", "111229.427500", "111230.917500", "111232.407500", "111233.897500", "111235.387500", "111236.877500", "111238.367500", "111239.857500", "111241.347500", "111242.837500", "111244.327500", "111245.817500", "111247.307500", "111248.797500", "111250.287500", "111251.777500", "111253.267500", "111254.757500", "111256.247500", "111257.737500", "111259.227500", "111300.717500", "111302.207500", "111303.697500", "111305.187500", "111306.677500", "111308.167500", "111309.657500", "111311.147500", "111312.637500", "111314.127500", "111315.617500", "111317.107500", "111318.597500", "111320.087500", "111321.577500", "111323.067500", "111324.557500", "111326.047500", "111327.537500"],
      "ContentTime": ["110234.638000", "110234.650000", "110234.653000", "110234.655000", "110234.658000", "110234.661000", "110234.664000", "110234.667000", "110234.670000", "110234.673000", "110234.681000", "110234.684000", "110234.692000", "110234.695000", "110234.698000", "110234.701000", "110234.703000", "110234.706000", "110234.713000", "110234.716000", "110234.719000", "110254.610000", "110254.613000", "110254.616000", "110254.619000", "110254.621000", "110254.624000", "110254.627000", "110254.630000", "110254.633000", "110254.635000", "110254.638000", "110254.641000", "110254.644000", "110254.653000", "110254.655000", "110254.658000", "110254.661000", "110254.664000", "110254.667000", "110254.670000", "110314.610000", "110314.613000", "110314.616000", "110314.619000", "110314.621000", "110314.624000", "110314.627000", "110314.630000", "110314.633000", "110314.636000", "110314.638000", "110314.646000", "110314.648000", "110314.651000", "110314.654000", "110314.657000", "110314.660000", "110314.663000", "110314.665000", "110314.669000", "110334.610000", "110334.613000", "110334.616000", "110334.619000", "110334.621000", "110334.624000", "110334.627000", "110334.630000", "110334.633000", "110334.636000", "110334.639000", "110334.641000", "110334.644000", "110334.647000", "110334.650000", "110334.653000", "110334.655000", "110334.658000", "110334.661000", "110334.664000", "110334.667000", "110354.610000", "110354.613000", "110354.616000", "110354.618000", "110354.621000", "110354.624000", "110354.627000", "110354.630000", "110354.633000", "110354.636000", "110354.638000", "110354.641000", "110354.645000", "110354.648000", "110354.651000", "110354.654000", "110354.657000", "110354.660000", "110354.662000", "110354.665000", "110434.611000", "110434.614000", "110434.617000", "110434.620000", "110434.622000", "110434.625000", "110434.628000", "110434.631000", "110434.634000", "110434.637000", "110434.640000", "110434.642000", "110434.645000", "110434.648000", "110434.651000", "110434.654000", "110434.656000", "110434.659000", "110434.662000", "110434.665000", "110434.668000", "110434.671000", "110434.674000", "110434.676000", "110434.679000", "110434.682000", "110434.685000", "110434.688000", "110434.691000", "110454.610000", "110454.613000", "110454.616000", "110454.619000", "110454.622000", "110454.624000", "110454.627000", "110454.630000", "110454.633000", "110454.636000", "110454.639000", "110454.641000", "110454.644000", "110454.647000", "110534.610000", "110534.613000", "110534.616000", "110534.619000", "110534.622000", "110534.625000", "110534.628000", "110534.631000", "110534.633000", "110534.636000", "110534.639000", "110534.642000", "110534.645000", "110534.648000", "110534.651000", "110534.654000", "110534.656000", "110534.659000", "110534.662000", "110534.665000", "110534.668000", "110534.671000", "110534.674000", "110534.677000", "110534.679000", "110534.682000", "110534.685000", "110614.610000", "110614.613000", "110614.616000", "110614.619000", "110614.622000", "110614.624000", "110614.627000", "110614.630000", "110614.633000", "110614.636000", "110614.639000", "110614.642000", "110614.645000", "110614.647000", "110614.650000", "110614.653000", "110614.656000", "110614.659000", "110614.662000", "110614.665000", "110614.667000", "110614.670000", "110614.673000", "110614.676000", "110614.679000", "110614.681000", "110654.611000", "110654.614000", "110654.617000", "110654.620000", "110654.623000", "110654.626000", "110654.629000", "110654.631000", "110654.634000", "110654.637000", "110654.640000", "110654.643000", "110654.646000", "110654.649000", "110654.651000", "110654.654000", "110654.657000", "110654.660000", "110654.663000", "110654.666000", "110654.668000", "110654.671000", "110654.683000", "110654.685000", "110654.688000", "110654.691000", "110654.694000", "110734.610000", "110734.613000", "110734.616000", "110734.619000", "110734.622000", "110734.625000", "110734.628000", "110734.631000", "110734.633000", "110734.636000", "110734.639000", "110734.642000", "110734.645000", "110734.648000", "110734.651000", "110734.654000", "110734.657000", "110734.660000", "110734.663000", "110734.666000", "110734.669000", "110734.672000", "110734.674000", "110734.677000", "110734.680000", "110734.683000", "110734.686000", "110814.610000", "110814.613000", "110814.616000", "110814.618000", "110814.622000", "110814.624000", "110814.627000", "110814.630000", "110814.633000", "110814.636000", "110814.639000", "110814.641000", "110814.644000", "110814.647000", "110814.650000", "110814.666000", "110814.669000", "110814.672000", "110814.675000", "110814.678000", "110814.681000", "110814.684000", "110814.686000", "110814.689000", "110814.692000", "110814.695000", "110814.698000", "110854.611000", "110854.614000", "110854.617000", "110854.620000", "110854.623000", "110854.625000", "110854.628000", "110854.631000", "110854.634000", "110854.637000", "110854.640000", "110854.642000", "110854.645000", "110854.648000", "110854.651000", "110854.654000", "110854.657000", "110854.660000", "110854.663000", "110854.666000", "110854.668000", "110854.671000", "110854.674000", "110854.677000", "110854.680000", "110854.683000", "110854.685000", "110934.610000", "110934.613000", "110934.616000", "110934.619000", "110934.622000", "110934.625000", "110934.627000", "110934.630000", "110934.633000", "110934.636000", "110934.639000", "110934.642000", "110934.645000", "110934.647000", "110934.650000", "110934.653000", "110934.656000", "110934.659000", "110934.662000", "110934.665000", "110934.668000", "110934.670000", "110934.673000", "110934.676000", "110934.679000", "110934.682000", "110934.685000", "111014.610000", "111014.613000", "111014.616000", "111014.619000", "111014.622000", "111014.625000", "111014.628000", "111014.631000", "111014.634000", "111014.636000", "111014.639000", "111014.642000", "111014.645000", "111014.648000", "111014.651000", "111014.654000", "111014.657000", "111014.659000", "111014.662000", "111014.665000", "111014.668000", "111014.671000", "111014.673000", "111014.676000", "111014.679000", "111014.682000", "111054.610000", "111054.613000", "111054.616000", "111054.619000", "111054.622000", "111054.624000", "111054.627000", "111054.630000", "111054.633000", "111054.636000", "111054.639000", "111054.642000", "111054.644000", "111054.647000", "111054.650000", "111054.653000", "111054.656000", "111054.659000", "111054.662000", "111054.665000", "111054.667000", "111054.670000", "111054.673000", "111054.676000", "111054.679000", "111054.681000", "111054.684000", "111134.611000", "111134.614000", "111134.617000", "111134.620000", "111134.623000", "111134.625000", "111134.635000", "111134.637000", "111134.640000", "111134.643000", "111134.646000", "111134.649000", "111134.652000", "111134.655000", "111134.657000", "111134.660000", "111134.663000", "111134.666000", "111134.669000", "111134.672000", "111134.674000", "111134.677000", "111134.680000", "111134.683000", "111134.686000", "111134.689000", "111134.692000", "111214.610000", "111214.613000", "111214.624000", "111214.627000", "111214.630000", "111214.633000", "111214.636000", "111214.639000", "111214.641000", "111214.644000", "111214.647000", "111214.650000", "111214.653000", "111214.656000", "111214.659000", "111214.661000", "111214.664000", "111214.667000", "111214.670000", "111214.673000", "111214.676000", "111214.678000", "111214.681000", "111214.684000", "111214.687000", "111214.690000", "111214.693000", "111254.610000", "111254.613000", "111254.616000", "111254.619000", "111254.622000", "111254.624000", "111254.627000", "111254.630000", "111254.633000", "111254.636000", "111254.639000", "111254.642000", "111254.645000", "111254.647000", "111254.650000", "111254.653000", "111254.656000", "111254.659000", "111254.662000", "111254.665000", "111254.668000", "111254.670000", "111254.673000", "111254.676000", "111254.679000", "111254.682000", "111254.685000", "111330.915000", "111330.918000", "111330.921000", "111330.924000", "111330.927000", "111330.930000", "111330.932000", "111330.935000", "111330.938000", "111330.941000", "111330.944000", "111330.947000", "111330.950000", "111330.953000", "111330.955000", "111330.958000", "111330.961000", "111330.964000", "111330.967000", "111330.970000", "111330.972000", "111330.975000", "111330.978000", "111330.981000"],
