{
  "AcquisitionMatrixPE": 104,
  "AcquisitionNumber": 1,
  "AcquisitionTime": "10:22:11.857500",
  "BandwidthPerPixelPhaseEncode": 17.17,
  "BaseResolution": 104,
  "BodyPartExamined": "BRAIN",
  "CoilString": "HC1-7;NC1_2",
  "ConsistencyInfo": "N4_VE11C_LATEST_20160120",
  "ConversionSoftware": "dcm2niix",
  "ConversionSoftwareVersion": "v1.0.20200427",
  "DerivedVendorReportedEchoSpacing": 0.000560011,
  "DeviceSerialNumber": "167006",
  "DwellTime": 2.1e-06,
  "EchoTime": 0.037,
  "EchoTrainLength": 104,
  "EffectiveEchoSpacing": 0.000560011,
  "FlipAngle": 52,
  "ImageComments": "Unaliased_MB4_PE3_LB",
  "ImageOrientationPatientDICOM": [0.999948, 0.00688008, 0.00753413, -0.00191977, 0.852117, -0.523348],
  "ImageType": [
    "ORIGINAL",
    "PRIMARY",
    "M",
    "MB",
    "ND",
    "MOSAIC"
],
  "ImagingFrequency": 123.259,
  "InPlanePhaseEncodingDirectionDICOM": "COL",
  "InstitutionAddress": "Chemin_Queen-Mary_4565_Montreal_District_CA_H3W_1W5",
  "InstitutionName": "IUGM",
  "InstitutionalDepartmentName": "Department",
  "MRAcquisitionType": "2D",
  "MagneticFieldStrength": 3,
  "Manufacturer": "Siemens",
  "ManufacturersModelName": "Prisma_fit",
  "Modality": "MR",
  "MultibandAccelerationFactor": 4,
  "PartialFourier": 1,
  "PatientPosition": "HFS",
  "PercentPhaseFOV": 100,
  "PercentSampling": 100,
  "PhaseEncodingDirection": "j",
  "PhaseEncodingSteps": 104,
  "PhaseResolution": 1,
  "PixelBandwidth": 2290,
  "ProcedureStepDescription": "games_shinobi",
  "ProtocolName": "func_task-shinobi_run-4",
  "PulseSequenceDetails": "%CustomerSeq%_cmrr_mbep2d_bold",
  "ReceiveCoilActiveElements": "HC1-7;NC1,2",
  "ReceiveCoilName": "HeadNeck_64",
  "ReconMatrixPE": 104,
  "RepetitionTime": 1.49,
  "SAR": 0.0273664,
  "ScanOptions": "FS",
  "ScanningSequence": "EP",
  "SequenceName": "epfid2d1_104",
  "SequenceVariant": "SK_SS",
  "SeriesDescription": "func_task-shinobi_run-4",
  "SeriesNumber": 15,
  "ShimSetting": [619, -7179, -8881, 371, 9, -190, -27, 8],
  "SliceThickness": 2,
  "SliceTiming": [0, 0.7825, 0.0975, 0.88, 0.195, 0.98, 0.2925, 1.0775, 0.39, 1.175, 0.49, 1.2725, 0.5875, 1.37, 0.685, 0, 0.7825, 0.0975, 0.88, 0.195, 0.98, 0.2925, 1.0775, 0.39, 1.175, 0.49, 1.2725, 0.5875, 1.37, 0.685, 0, 0.7825, 0.0975, 0.88, 0.195, 0.98, 0.2925, 1.0775, 0.39, 1.175, 0.49, 1.2725, 0.5875, 1.37, 0.685, 0, 0.7825, 0.0975, 0.88, 0.195, 0.98, 0.2925, 1.0775, 0.39, 1.175, 0.49, 1.2725, 0.5875, 1.37, 0.685],
  "SoftwareVersions": "syngo_MR_E11",
  "SpacingBetweenSlices": 2,
  "StationName": "MRC35049",
  "TaskName": "shinobi",
  "TotalReadoutTime": 0.0576811,
  "TxRefAmp": 230.736,
  "WipMemBlock": "003bf32e-f7ef-42d8-bb7c-89393139987a||Sequence: R016 ve11c/master r/e634e98; Dec 19 2017 11:00:25 by eja",
  "dcmmeta_affine": [
    [-1.9998959302902222, -0.00383953470736742, 0.02004126086831093, 106.45889282226562],
    [-0.013760159723460674, 1.70423424243927, -1.0466117858886719, -47.07535934448242],
    [0.015068250708281994, 1.0466952323913574, 1.7041720151901245, -102.17871856689453],
    [0.0, 0.0, 0.0, 1.0]
],
  "dcmmeta_reorient_transform": [
    [0.0, -1.0, 0.0, 103.0],
    [1.0, 0.0, 0.0, 0.0],
    [0.0, 0.0, 1.0, 0.0],
    [0.0, 0.0, 0.0, 1.0]
],
  "dcmmeta_shape": [104, 104, 60, 458],
  "dcmmeta_slice_dim": 2,
  "dcmmeta_version": 0.6,
  "global": {
    "const": {
      "AcquisitionMatrix": [104, 0, 0, 104],
      "AngioFlag": "N",
      "BitsAllocated": 16,
      "BitsStored": 16,
      "BodyPartExamined": "BRAIN",
      "Columns": 832,
      "EchoNumbers": 1,
      "EchoTime": 37.0,
      "EchoTrainLength": 104,
      "FlipAngle": 52.0,
      "HighBit": 15,
      "ImageOrientationPatient": [0.99994794937198, 0.00688008001102, 0.00753412541855, -0.0019197673439, 0.85211712203654, -0.5233476137573],
      "ImagePositionPatient": [-832.6279334703, -753.81072932403, 381.1431084612],
      "ImageType": [
        "ORIGINAL",
        "PRIMARY",
        "M",
        "MB",
        "ND",
        "MOSAIC"
],
      "ImagedNucleus": "1H",
      "ImagingFrequency": 123.259083,
      "InPlanePhaseEncodingDirection": "COL",
      "MRAcquisitionType": "2D",
      "MagneticFieldStrength": 3.0,
      "Manufacturer": "SIEMENS",
      "ManufacturerModelName": "Prisma_fit",
      "Modality": "MR",
      "NumberOfAverages": 1.0,
      "NumberOfPhaseEncodingSteps": 104,
      "PercentPhaseFieldOfView": 100.0,
      "PercentSampling": 100.0,
      "PerformedProcedureStepStartTime": "091523.933000",
      "PhotometricInterpretation": "MONOCHROME2",
      "PixelBandwidth": 2290.0,
      "PixelRepresentation": 0,
      "PixelSpacing": [2.0, 2.0],
      "ProtocolName": "func_task-shinobi_run-4",
      "RepetitionTime": 1490.0,
      "Rows": 832,
      "SAR": 0.02736638374967,
      "SamplesPerPixel": 1,
      "ScanOptions": "FS",
      "ScanningSequence": "EP",
      "SequenceName": "epfid2d1_104",
      "SequenceVariant": [
        "SK",
        "SS"
],
      "SeriesDescription": "func_task-shinobi_run-4",
      "SeriesNumber": 15,
      "SeriesTime": "102319.652000",
      "SliceLocation": -61.363454250927,
      "SliceThickness": 2.0,
      "SmallestImagePixelValue": 0,
      "SoftwareVersions": "syngo MR E11",
      "SpacingBetweenSlices": 2.0000000157959,
      "SpecificCharacterSet": "ISO_IR 100",
      "StudyID": "1",
      "StudyTime": "091523.831000",
      "TransmitCoilName": "Body",
      "VariableFlipAngleFlag": "N",
      "WindowCenterWidthExplanation": "Algo1",
      "dBdt": 0.0},
    "slices": {}
  },
  "time": {
    "samples": {
      "AcquisitionNumber": [1, 2, 3, 4, 5, 6, 7, 8, 9, 10, 11, 12, 13, 14, 15, 16, 17, 18, 19, 20, 21, 22, 23, 24, 25, 26, 27, 28, 29, 30, 31, 32, 33, 34, 35, 36, 37, 38, 39, 40, 41, 42, 43, 44, 45, 46, 47, 48, 49, 50, 51, 52, 53, 54, 55, 56, 57, 58, 59, 60, 61, 62, 63, 64, 65, 66, 67, 68, 69, 70, 71, 72, 73, 74, 75, 76, 77, 78, 79, 80, 81, 82, 83, 84, 85, 86, 87, 88, 89, 90, 91, 92, 93, 94, 95, 96, 97, 98, 99, 100, 101, 102, 103, 104, 105, 106, 107, 108, 109, 110, 111, 112, 113, 114, 115, 116, 117, 118, 119, 120, 121, 122, 123, 124, 125, 126, 127, 128, 129, 130, 131, 132, 133, 134, 135, 136, 137, 138, 139, 140, 141, 142, 143, 144, 145, 146, 147, 148, 149, 150, 151, 152, 153, 154, 155, 156, 157, 158, 159, 160, 161, 162, 163, 164, 165, 166, 167, 168, 169, 170, 171, 172, 173, 174, 175, 176, 177, 178, 179, 180, 181, 182, 183, 184, 185, 186, 187, 188, 189, 190, 191, 192, 193, 194, 195, 196, 197, 198, 199, 200, 201, 202, 203, 204, 205, 206, 207, 208, 209, 210, 211, 212, 213, 214, 215, 216, 217, 218, 219, 220, 221, 222, 223, 224, 225, 226, 227, 228, 229, 230, 231, 232, 233, 234, 235, 236, 237, 238, 239, 240, 241, 242, 243, 244, 245, 246, 247, 248, 249, 250, 251, 252, 253, 254, 255, 256, 257, 258, 259, 260, 261, 262, 263, 264, 265, 266, 267, 268, 269, 270, 271, 272, 273, 274, 275, 276, 277, 278, 279, 280, 281, 282, 283, 284, 285, 286, 287, 288, 289, 290, 291, 292, 293, 294, 295, 296, 297, 298, 299, 300, 301, 302, 303, 304, 305, 306, 307, 308, 309, 310, 311, 312, 313, 314, 315, 316, 317, 318, 319, 320, 321, 322, 323, 324, 325, 326, 327, 328, 329, 330, 331, 332, 333, 334, 335, 336, 337, 338, 339, 340, 341, 342, 343, 344, 345, 346, 347, 348, 349, 350, 351, 352, 353, 354, 355, 356, 357, 358, 359, 360, 361, 362, 363, 364, 365, 366, 367, 368, 369, 370, 371, 372, 373, 374, 375, 376, 377, 378, 379, 380, 381, 382, 383, 384, 385, 386, 387, 388, 389, 390, 391, 392, 393, 394, 395, 396, 397, 398, 399, 400, 401, 402, 403, 404, 405, 406, 407, 408, 409, 410, 411, 412, 413, 414, 415, 416, 417, 418, 419, 420, 421, 422, 423, 424, 425, 426, 427, 428, 429, 430, 431, 432, 433, 434, 435, 436, 437, 438, 439, 440, 441, 442, 443, 444, 445, 446, 447, 448, 449, 450, 451, 452, 453, 454, 455, 456, 457, 458],
      "AcquisitionTime": ["102211.857500", "102213.347500", "102214.837500", "102216.327500", "102217.817500", "102219.307500", "102220.797500", "102222.287500", "102223.777500", "102225.267500", "102226.757500", "102228.247500", "102229.737500", "102231.227500", "102232.717500", "102234.207500", "102235.697500", "102237.187500", "102238.677500", "102240.167500", "102241.657500", "102243.147500", "102244.637500", "102246.127500", "102247.617500", "102249.107500", "102250.597500", "102252.087500", "102253.577500", "102255.067500", "102256.557500", "102258.047500", "102259.537500", "102301.027500", "102302.517500", "102304.007500", "102305.497500", "102306.987500", "102308.477500", "102309.967500", "102311.457500", "102312.947500", "102314.437500", "102315.927500", "102317.417500", "102318.907500", "102320.397500", "102321.887500", "102323.377500", "102324.867500", "102326.357500", "102327.847500", "102329.337500", "102330.827500", "102332.317500", "102333.807500", "102335.297500", "102336.787500", "102338.277500", "102339.767500", "102341.257500", "102342.747500", "102344.237500", "102345.727500", "102347.217500", "102348.707500", "102350.197500", "102351.687500", "102353.177500", "102354.667500", "102356.157500", "102357.647500", "102359.137500", "102400.627500", "102402.117500", "102403.607500", "102405.097500", "102406.587500", "102408.077500", "102409.567500", "102411.057500", "102412.547500", "102414.037500", "102415.527500", "102417.017500", "102418.507500", "102419.997500", "102421.487500", "102422.977500", "102424.467500", "102425.957500", "102427.447500", "102428.937500", "102430.427500", "102431.917500", "102433.407500", "102434.897500", "102436.387500", "102437.877500", "102439.367500", "102440.857500", "102442.347500", "102443.837500", "102445.327500", "102446.817500", "102448.307500", "102449.797500", "102451.287500", "102452.777500", "102454.267500", "102455.757500", "102457.247500", "102458.737500", "102500.227500", "102501.717500", "102503.207500", "102504.697500", "102506.187500", "102507.677500", "102509.167500", "102510.657500", "102512.147500", "102513.637500", "102515.127500", "102516.617500", "102518.107500", "102519.597500", "102521.087500", "102522.577500", "102524.067500", "102525.557500", "102527.047500", "102528.537500", "102530.027500", "102531.517500", "102533.007500", "102534.497500", "102535.987500", "102537.477500", "102538.967500", "102540.457500", "102541.947500", "102543.437500", "102544.927500", "102546.417500", "102547.907500", "102549.397500", "102550.887500", "102552.377500", "102553.867500", "102555.357500", "102556.847500", "102558.337500", "102559.827500", "102601.317500", "102602.807500", "102604.297500", "102605.787500", "102607.277500", "102608.767500", "102610.257500", "102611.747500", "102613.237500", "102614.727500", "102616.217500", "102617.707500", "102619.197500", "102620.687500", "102622.177500", "102623.667500", "102625.157500", "102626.647500", "102628.137500", "102629.627500", "102631.117500", "102632.607500", "102634.097500", "102635.587500", "102637.077500", "102638.567500", "102640.057500", "102641.547500", "102643.037500", "102644.527500", "102646.017500", "102647.507500", "102648.997500", "102650.487500", "102651.977500", "102653.467500", "102654.957500", "102656.447500", "102657.937500", "102659.427500", "102700.917500", "102702.407500", "102703.897500", "102705.387500", "102706.877500", "102708.367500", "102709.857500", "102711.347500", "102712.837500", "102714.327500", "102715.817500", "102717.307500", "102718.797500", "102720.287500", "102721.777500", "102723.267500", "102724.757500", "102726.247500", "102727.737500", "102729.227500", "102730.717500", "102732.207500", "102733.697500", "102735.187500", "102736.677500", "102738.167500", "102739.657500", "102741.147500", "102742.637500", "102744.127500", "102745.617500", "102747.107500", "102748.597500", "102750.087500", "102751.577500", "102753.067500", "102754.557500", "102756.047500", "102757.537500", "102759.027500", "102800.517500", "102802.007500", "102803.497500", "102804.987500", "102806.477500", "102807.967500", "102809.457500", "102810.947500", "102812.437500", "102813.927500", "102815.417500", "102816.907500", "102818.397500", "102819.887500", "102821.377500", "102822.867500", "102824.357500", "102825.847500", "102827.337500", "102828.827500", "102830.317500", "102831.807500", "102833.297500", "102834.787500", "102836.277500", "102837.767500", "102839.257500", "102840.747500", "102842.237500", "102843.727500", "102845.217500", "102846.707500", "102848.197500", "102849.687500", "102851.177500", "102852.667500", "102854.157500", "102855.647500", "102857.137500", "102858.627500", "102900.117500", "102901.607500", "102903.097500", "102904.587500", "102906.077500", "102907.567500", "102909.057500", "102910.547500", "102912.037500", "102913.527500", "102915.017500", "102916.507500", "102917.997500", "102919.487500", "102920.977500", "102922.467500", "102923.957500", "102925.447500", "102926.937500", "102928.427500", "102929.917500", "102931.407500", "102932.897500", "102934.387500", "102935.877500", "102937.367500", "102938.857500", "102940.347500", "102941.837500", "102943.327500", "102944.817500", "102946.307500", "102947.797500", "102949.287500", "102950.777500", "102952.267500", "102953.757500", "102955.247500", "102956.737500", "102958.227500", "102959.717500", "103001.207500", "103002.697500", "103004.187500", "103005.677500", "103007.167500", "103008.657500", "103010.147500", "103011.637500", "103013.127500", "103014.617500", "103016.107500", "103017.597500", "103019.087500", "103020.577500", "103022.067500", "103023.557500", "103025.047500", "103026.537500", "103028.027500", "103029.517500", "103031.007500", "103032.497500", "103033.987500", "103035.477500", "103036.967500", "103038.457500", "103039.947500", "103041.437500", "103042.927500", "103044.417500", "103045.907500", "103047.397500", "103048.887500", "103050.377500", "103051.867500", "103053.357500", "103054.847500", "103056.337500", "103057.827500", "103059.317500", "103100.807500", "103102.297500", "103103.787500", "103105.277500", "103106.767500", "103108.257500", "103109.747500", "103111.237500", "103112.727500", "103114.217500", "103115.707500", "103117.197500", "103118.687500", "103120.177500", "103121.667500", "103123.157500", "103124.647500", "103126.137500", "103127.627500", "103129.117500", "103130.607500", "103132.097500", "103133.587500", "103135.077500", "103136.567500", "103138.057500", "103139.547500", "103141.037500", "103142.527500", "103144.017500", "103145.507500", "103146.997500", "103148.487500", "103149.977500", "103151.467500", "103152.957500", "103154.447500", "103155.937500", "103157.427500", "103158.917500", "103200.407500", "103201.897500", "103203.387500", "103204.877500", "103206.367500", "103207.857500", "103209.347500", "103210.837500", "103212.327500", "103213.817500", "103215.307500", "103216.797500", "103218.287500", "103219.777500", "103221.267500", "103222.757500", "103224.247500", "103225.737500", "103227.227500", "103228.717500", "103230.207500", "103231.697500", "103233.187500", "103234.677500", "103236.167500", "103237.657500", "103239.147500", "103240.637500", "103242.127500", "103243.617500", "103245.107500", "103246.597500", "103248.087500", "103249.577500", "103251.067500", "103252.557500", "103254.047500", "103255.537500", "103257.027500", "103258.517500", "103300.007500", "103301.497500", "103302.987500", "103304.477500", "103305.967500", "103307.457500", "103308.947500", "103310.437500", "103311.927500", "103313.417500", "103314.907500", "103316.397500", "103317.887500", "103319.377500", "103320.867500", "103322.357500", "103323.847500", "103325.337500", "103326.827500", "103328.317500", "103329.807500", "103331.297500", "103332.787500"],
      "ContentTime": ["102319.655000", "102319.658000", "102319.661000", "102319.664000", "102319.667000", "102319.670000", "102319.673000", "102319.676000", "102319.679000", "102319.682000", "102319.684000", "102319.687000", "102319.690000", "102319.693000", "102339.607000", "102339.610000", "102339.613000", "102339.616000", "102339.619000", "102339.622000", "102339.625000", "102339.628000", "102339.630000", "102339.633000", "102339.651000", "102339.654000", "102339.657000", "102339.660000", "102339.663000", "102339.666000", "102339.669000", "102339.671000", "102339.674000", "102339.677000", "102359.607000", "102359.610000", "102359.613000", "102359.616000", "102359.619000", "102359.622000", "102359.625000", "102359.628000", "102359.630000", "102359.633000", "102359.636000", "102359.639000", "102359.642000", "102359.645000", "102359.648000", "102359.651000", "102359.654000", "102359.657000", "102359.660000", "102359.663000", "102419.608000", "102419.611000", "102419.614000", "102419.617000", "102419.620000", "102419.623000", "102419.625000", "102419.628000", "102419.631000", "102419.634000", "102419.637000", "102419.640000", "102419.643000", "102419.646000", "102419.649000", "102419.652000", "102419.655000", "102419.657000", "102419.660000", "102419.663000", "102419.666000", "102439.607000", "102439.610000", "102439.613000", "102439.616000", "102439.619000", "102439.622000", "102439.625000", "102439.628000", "102439.630000", "102439.633000", "102439.636000", "102439.639000", "102439.642000", "102439.645000", "102439.648000", "102439.651000", "102439.654000", "102439.657000", "102439.659000", "102439.663000", "102519.607000", "102519.610000", "102519.613000", "102519.616000", "102519.619000", "102519.622000", "102519.625000", "102519.628000", "102519.631000", "102519.634000", "102519.636000", "102519.640000", "102519.642000", "102519.645000", "102519.648000", "102519.651000", "102519.654000", "102519.657000", "102519.660000", "102519.668000", "102519.671000", "102519.674000", "102519.677000", "102519.680000", "102519.683000", "102519.685000", "102519.688000", "102519.691000", "102519.694000", "102519.697000", "102559.607000", "102559.610000", "102559.613000", "102559.616000", "102559.619000", "102559.622000", "102559.625000", "102559.628000", "102559.631000", "102559.633000", "102559.636000", "102559.639000", "102559.642000", "102559.645000", "102559.648000", "102559.651000", "102559.654000", "102559.657000", "102559.660000", "102559.663000", "102559.666000", "102559.669000", "102559.672000", "102559.675000", "102559.677000", "102559.680000", "102559.683000", "102639.607000", "102639.610000", "102639.613000", "102639.616000", "102639.619000", "102639.622000", "102639.625000", "102639.628000", "102639.631000", "102639.634000", "102639.637000", "102639.639000", "102639.642000", "102639.645000", "102639.648000", "102639.651000", "102639.654000", "102639.657000", "102639.660000", "102639.664000", "102639.668000", "102639.670000", "102639.673000", "102639.676000", "102639.679000", "102639.682000", "102719.607000", "102719.610000", "102719.613000", "102719.616000", "102719.619000", "102719.622000", "102719.625000", "102719.628000", "102719.631000", "102719.634000", "102719.637000", "102719.640000", "102719.643000", "102719.645000", "102719.648000", "102719.651000", "102719.654000", "102719.657000", "102719.660000", "102719.663000", "102719.666000", "102719.669000", "102719.672000", "102719.675000", "102719.678000", "102719.680000", "102719.683000", "102759.607000", "102759.610000", "102759.613000", "102759.616000", "102759.619000", "102759.622000", "102759.625000", "102759.628000", "102759.631000", "102759.634000", "102759.637000", "102759.640000", "102759.643000", "102759.646000", "102759.648000", "102759.652000", "102759.666000", "102759.669000", "102759.672000", "102759.675000", "102759.678000", "102759.681000", "102759.683000", "102759.686000", "102759.689000", "102759.692000", "102759.695000", "102839.607000", "102839.610000", "102839.613000", "102839.616000", "102839.619000", "102839.622000", "102839.625000", "102839.628000", "102839.631000", "102839.633000", "102839.637000", "102839.639000", "102839.642000", "102839.645000", "102839.648000", "102839.651000", "102839.654000", "102839.657000", "102839.660000", "102839.663000", "102839.666000", "102839.669000", "102839.672000", "102839.675000", "102839.677000", "102839.680000", "102839.683000", "102919.607000", "102919.610000", "102919.613000", "102919.616000", "102919.619000", "102919.622000", "102919.625000", "102919.628000", "102919.631000", "102919.634000", "102919.637000", "102919.639000", "102919.642000", "102919.645000", "102919.648000", "102919.651000", "102919.654000", "102919.657000", "102919.660000", "102919.663000", "102919.666000", "102919.669000", "102919.672000", "102919.675000", "102919.678000", "102919.681000", "102919.684000", "102959.607000", "102959.610000", "102959.613000", "102959.616000", "102959.619000", "102959.622000", "102959.625000", "102959.628000", "102959.631000", "102959.634000", "102959.637000", "102959.639000", "102959.643000", "102959.645000", "102959.648000", "102959.651000", "102959.654000", "102959.657000", "102959.660000", "102959.663000", "102959.666000", "102959.669000", "102959.672000", "102959.675000", "102959.678000", "102959.681000", "102959.684000", "103039.607000", "103039.610000", "103039.613000", "103039.623000", "103039.626000", "103039.629000", "103039.632000", "103039.635000", "103039.638000", "103039.641000", "103039.644000", "103039.647000", "103039.650000", "103039.653000", "103039.656000", "103039.659000", "103039.662000", "103039.665000", "103039.667000", "103039.671000", "103039.673000", "103039.676000", "103039.679000", "103039.682000", "103039.685000", "103039.688000", "103039.691000", "103119.607000", "103119.610000", "103119.613000", "103119.616000", "103119.619000", "103119.622000", "103119.625000", "103119.628000", "103119.631000", "103119.633000", "103119.636000", "103119.639000", "103119.642000", "103119.645000", "103119.648000", "103119.651000", "103119.654000", "103119.658000", "103119.661000", "103119.664000", "103119.667000", "103119.670000", "103119.673000", "103119.676000", "103119.679000", "103119.682000", "103159.607000", "103159.610000", "103159.613000", "103159.616000", "103159.619000", "103159.622000", "103159.625000", "103159.628000", "103159.631000", "103159.634000", "103159.637000", "103159.639000", "103159.643000", "103159.646000", "103159.649000", "103159.651000", "103159.654000", "103159.657000", "103159.660000", "103159.663000", "103159.666000", "103159.669000", "103159.672000", "103159.675000", "103159.678000", "103159.680000", "103159.683000", "103239.607000", "103239.610000", "103239.613000", "103239.616000", "103239.619000", "103239.622000", "103239.625000", "103239.628000", "103239.631000", "103239.634000", "103239.636000", "103239.640000", "103239.661000", "103239.664000", "103239.667000", "103239.670000", "103239.673000", "103239.676000", "103239.679000", "103239.682000", "103239.685000", "103239.688000", "103239.691000", "103239.694000", "103239.697000", "103239.699000", "103239.702000", "103319.607000", "103319.610000", "103319.613000", "103319.616000", "103319.619000", "103319.622000", "103319.625000", "103319.628000", "103319.631000", "103319.633000", "103319.636000", "103319.639000", "103319.642000", "103319.645000", "103319.648000", "103319.651000", "103319.654000", "103319.657000", "103319.660000", "103319.663000", "103319.666000", "103319.669000", "103319.672000", "103319.675000", "103319.678000", "103319.681000", "103319.684000", "103336.775000", "103336.779000", "103336.782000", "103336.787000", "103336.790000", "103336.794000", "103336.802000", "103336.806000", "103336.810000", "103336.814000", "103336.818000"],
