{
  "AcquisitionMatrixPE": 104,
  "AcquisitionNumber": 1,
  "AcquisitionTime": "10:34:44.192500",
  "BandwidthPerPixelPhaseEncode": 17.17,
  "BaseResolution": 104,
  "BodyPartExamined": "BRAIN",
  "CoilString": "HC1-7;NC1_2",
  "ConsistencyInfo": "N4_VE11C_LATEST_20160120",
  "ConversionSoftware": "dcm2niix",
  "ConversionSoftwareVersion": "v1.0.20200427",
  "DerivedVendorReportedEchoSpacing": 0.000560011,
  "DeviceSerialNumber": "167006",
  "DwellTime": 2.1e-06,
  "EchoTime": 0.037,
  "EchoTrainLength": 104,
  "EffectiveEchoSpacing": 0.000560011,
  "FlipAngle": 52,
  "ImageComments": "Unaliased_MB4_PE3_LB",
  "ImageOrientationPatientDICOM": [0.999948, 0.00688008, 0.00753413, -0.00191977, 0.852117, -0.523348],
  "ImageType": [
    "ORIGINAL",
    "PRIMARY",
    "M",
    "MB",
    "ND",
    "MOSAIC"
],
  "ImagingFrequency": 123.259,
  "InPlanePhaseEncodingDirectionDICOM": "COL",
  "InstitutionAddress": "Chemin_Queen-Mary_4565_Montreal_District_CA_H3W_1W5",
  "InstitutionName": "IUGM",
  "InstitutionalDepartmentName": "Department",
  "MRAcquisitionType": "2D",
  "MagneticFieldStrength": 3,
  "Manufacturer": "Siemens",
  "ManufacturersModelName": "Prisma_fit",
  "Modality": "MR",
  "MultibandAccelerationFactor": 4,
  "PartialFourier": 1,
  "PatientPosition": "HFS",
  "PercentPhaseFOV": 100,
  "PercentSampling": 100,
  "PhaseEncodingDirection": "j",
  "PhaseEncodingSteps": 104,
  "PhaseResolution": 1,
  "PixelBandwidth": 2290,
  "ProcedureStepDescription": "games_shinobi",
  "ProtocolName": "func_task-shinobi_run-5",
  "PulseSequenceDetails": "%CustomerSeq%_cmrr_mbep2d_bold",
  "ReceiveCoilActiveElements": "HC1-7;NC1,2",
  "ReceiveCoilName": "HeadNeck_64",
  "ReconMatrixPE": 104,
  "RepetitionTime": 1.49,
  "SAR": 0.0273664,
  "ScanOptions": "FS",
  "ScanningSequence": "EP",
  "SequenceName": "epfid2d1_104",
  "SequenceVariant": "SK_SS",
  "SeriesDescription": "func_task-shinobi_run-5",
  "SeriesNumber": 17,
  "ShimSetting": [619, -7179, -8881, 371, 9, -190, -27, 8],
  "SliceThickness": 2,
  "SliceTiming": [0, 0.785, 0.0975, 0.8825, 0.195, 0.98, 0.295, 1.0775, 0.3925, 1.175, 0.49, 1.275, 0.5875, 1.3725, 0.685, 0, 0.785, 0.0975, 0.8825, 0.195, 0.98, 0.295, 1.0775, 0.3925, 1.175, 0.49, 1.275, 0.5875, 1.3725, 0.685, 0, 0.785, 0.0975, 0.8825, 0.195, 0.98, 0.295, 1.0775, 0.3925, 1.175, 0.49, 1.275, 0.5875, 1.3725, 0.685, 0, 0.785, 0.0975, 0.8825, 0.195, 0.98, 0.295, 1.0775, 0.3925, 1.175, 0.49, 1.275, 0.5875, 1.3725, 0.685],
  "SoftwareVersions": "syngo_MR_E11",
  "SpacingBetweenSlices": 2,
  "StationName": "MRC35049",
  "TaskName": "shinobi",
  "TotalReadoutTime": 0.0576811,
  "TxRefAmp": 230.736,
  "WipMemBlock": "da72b621-1d6c-4865-bea5-8ca4adb976e7||Sequence: R016 ve11c/master r/e634e98; Dec 19 2017 11:00:25 by eja",
  "dcmmeta_affine": [
    [-1.9998959302902222, -0.00383953470736742, 0.02004126086831093, 106.45889282226562],
    [-0.013760159723460674, 1.70423424243927, -1.0466117858886719, -47.07535934448242],
    [0.015068250708281994, 1.0466952323913574, 1.7041720151901245, -102.17871856689453],
    [0.0, 0.0, 0.0, 1.0]
],
  "dcmmeta_reorient_transform": [
    [0.0, -1.0, 0.0, 103.0],
    [1.0, 0.0, 0.0, 0.0],
    [0.0, 0.0, 1.0, 0.0],
    [0.0, 0.0, 0.0, 1.0]
],
  "dcmmeta_shape": [104, 104, 60, 443],
  "dcmmeta_slice_dim": 2,
  "dcmmeta_version": 0.6,
  "global": {
    "const": {
      "AcquisitionMatrix": [104, 0, 0, 104],
      "AngioFlag": "N",
      "BitsAllocated": 16,
      "BitsStored": 16,
      "BodyPartExamined": "BRAIN",
      "Columns": 832,
      "EchoNumbers": 1,
      "EchoTime": 37.0,
      "EchoTrainLength": 104,
      "FlipAngle": 52.0,
      "HighBit": 15,
      "ImageOrientationPatient": [0.99994794937198, 0.00688008001102, 0.00753412541855, -0.0019197673439, 0.85211712203654, -0.5233476137573],
      "ImagePositionPatient": [-832.6279334703, -753.81072932403, 381.1431084612],
      "ImageType": [
        "ORIGINAL",
        "PRIMARY",
        "M",
        "MB",
        "ND",
        "MOSAIC"
],
      "ImagedNucleus": "1H",
      "ImagingFrequency": 123.259081,
      "InPlanePhaseEncodingDirection": "COL",
      "MRAcquisitionType": "2D",
      "MagneticFieldStrength": 3.0,
      "Manufacturer": "SIEMENS",
      "ManufacturerModelName": "Prisma_fit",
      "Modality": "MR",
      "NumberOfAverages": 1.0,
      "NumberOfPhaseEncodingSteps": 104,
      "PercentPhaseFieldOfView": 100.0,
      "PercentSampling": 100.0,
      "PerformedProcedureStepStartTime": "091523.933000",
      "PhotometricInterpretation": "MONOCHROME2",
      "PixelBandwidth": 2290.0,
      "PixelRepresentation": 0,
      "PixelSpacing": [2.0, 2.0],
      "ProtocolName": "func_task-shinobi_run-5",
      "RepetitionTime": 1490.0,
      "Rows": 832,
      "SAR": 0.02736638374967,
      "SamplesPerPixel": 1,
      "ScanOptions": "FS",
      "ScanningSequence": "EP",
      "SequenceName": "epfid2d1_104",
      "SequenceVariant": [
        "SK",
        "SS"
],
      "SeriesDescription": "func_task-shinobi_run-5",
      "SeriesNumber": 17,
      "SeriesTime": "103606.850000",
      "SliceLocation": -61.363454250927,
      "SliceThickness": 2.0,
      "SmallestImagePixelValue": 0,
      "SoftwareVersions": "syngo MR E11",
      "SpacingBetweenSlices": 2.0000000157959,
      "SpecificCharacterSet": "ISO_IR 100",
      "StudyID": "1",
      "StudyTime": "091523.831000",
      "TransmitCoilName": "Body",
      "VariableFlipAngleFlag": "N",
      "WindowCenterWidthExplanation": "Algo1",
      "dBdt": 0.0},
    "slices": {}
  },
  "time": {
    "samples": {
      "AcquisitionNumber": [1, 2, 3, 4, 5, 6, 7, 8, 9, 10, 11, 12, 13, 14, 15, 16, 17, 18, 19, 20, 21, 22, 23, 24, 25, 26, 27, 28, 29, 30, 31, 32, 33, 34, 35, 36, 37, 38, 39, 40, 41, 42, 43, 44, 45, 46, 47, 48, 49, 50, 51, 52, 53, 54, 55, 56, 57, 58, 59, 60, 61, 62, 63, 64, 65, 66, 67, 68, 69, 70, 71, 72, 73, 74, 75, 76, 77, 78, 79, 80, 81, 82, 83, 84, 85, 86, 87, 88, 89, 90, 91, 92, 93, 94, 95, 96, 97, 98, 99, 100, 101, 102, 103, 104, 105, 106, 107, 108, 109, 110, 111, 112, 113, 114, 115, 116, 117, 118, 119, 120, 121, 122, 123, 124, 125, 126, 127, 128, 129, 130, 131, 132, 133, 134, 135, 136, 137, 138, 139, 140, 141, 142, 143, 144, 145, 146, 147, 148, 149, 150, 151, 152, 153, 154, 155, 156, 157, 158, 159, 160, 161, 162, 163, 164, 165, 166, 167, 168, 169, 170, 171, 172, 173, 174, 175, 176, 177, 178, 179, 180, 181, 182, 183, 184, 185, 186, 187, 188, 189, 190, 191, 192, 193, 194, 195, 196, 197, 198, 199, 200, 201, 202, 203, 204, 205, 206, 207, 208, 209, 210, 211, 212, 213, 214, 215, 216, 217, 218, 219, 220, 221, 222, 223, 224, 225, 226, 227, 228, 229, 230, 231, 232, 233, 234, 235, 236, 237, 238, 239, 240, 241, 242, 243, 244, 245, 246, 247, 248, 249, 250, 251, 252, 253, 254, 255, 256, 257, 258, 259, 260, 261, 262, 263, 264, 265, 266, 267, 268, 269, 270, 271, 272, 273, 274, 275, 276, 277, 278, 279, 280, 281, 282, 283, 284, 285, 286, 287, 288, 289, 290, 291, 292, 293, 294, 295, 296, 297, 298, 299, 300, 301, 302, 303, 304, 305, 306, 307, 308, 309, 310, 311, 312, 313, 314, 315, 316, 317, 318, 319, 320, 321, 322, 323, 324, 325, 326, 327, 328, 329, 330, 331, 332, 333, 334, 335, 336, 337, 338, 339, 340, 341, 342, 343, 344, 345, 346, 347, 348, 349, 350, 351, 352, 353, 354, 355, 356, 357, 358, 359, 360, 361, 362, 363, 364, 365, 366, 367, 368, 369, 370, 371, 372, 373, 374, 375, 376, 377, 378, 379, 380, 381, 382, 383, 384, 385, 386, 387, 388, 389, 390, 391, 392, 393, 394, 395, 396, 397, 398, 399, 400, 401, 402, 403, 404, 405, 406, 407, 408, 409, 410, 411, 412, 413, 414, 415, 416, 417, 418, 419, 420, 421, 422, 423, 424, 425, 426, 427, 428, 429, 430, 431, 432, 433, 434, 435, 436, 437, 438, 439, 440, 441, 442, 443],
      "AcquisitionTime": ["103444.192500", "103445.682500", "103447.172500", "103448.662500", "103450.152500", "103451.642500", "103453.132500", "103454.622500", "103456.112500", "103457.602500", "103459.092500", "103500.582500", "103502.072500", "103503.562500", "103505.052500", "103506.542500", "103508.032500", "103509.522500", "103511.012500", "103512.502500", "103513.992500", "103515.482500", "103516.972500", "103518.462500", "103519.952500", "103521.442500", "103522.932500", "103524.422500", "103525.912500", "103527.402500", "103528.892500", "103530.382500", "103531.872500", "103533.362500", "103534.852500", "103536.342500", "103537.832500", "103539.322500", "103540.812500", "103542.302500", "103543.792500", "103545.282500", "103546.772500", "103548.262500", "103549.752500", "103551.242500", "103552.732500", "103554.222500", "103555.712500", "103557.202500", "103558.692500", "103600.182500", "103601.672500", "103603.162500", "103604.652500", "103606.142500", "103607.632500", "103609.122500", "103610.612500", "103612.102500", "103613.592500", "103615.082500", "103616.572500", "103618.062500", "103619.552500", "103621.042500", "103622.532500", "103624.022500", "103625.512500", "103627.002500", "103628.492500", "103629.982500", "103631.472500", "103632.962500", "103634.452500", "103635.942500", "103637.432500", "103638.922500", "103640.412500", "103641.902500", "103643.392500", "103644.882500", "103646.372500", "103647.862500", "103649.352500", "103650.842500", "103652.332500", "103653.822500", "103655.312500", "103656.802500", "103658.292500", "103659.782500", "103701.272500", "103702.762500", "103704.252500", "103705.742500", "103707.232500", "103708.722500", "103710.212500", "103711.702500", "103713.192500", "103714.682500", "103716.172500", "103717.662500", "103719.152500", "103720.642500", "103722.132500", "103723.622500", "103725.112500", "103726.602500", "103728.092500", "103729.582500", "103731.072500", "103732.562500", "103734.052500", "103735.542500", "103737.032500", "103738.522500", "103740.012500", "103741.502500", "103742.992500", "103744.482500", "103745.972500", "103747.462500", "103748.952500", "103750.442500", "103751.932500", "103753.422500", "103754.912500", "103756.402500", "103757.892500", "103759.382500", "103800.872500", "103802.362500", "103803.852500", "103805.342500", "103806.832500", "103808.322500", "103809.812500", "103811.302500", "103812.792500", "103814.282500", "103815.772500", "103817.262500", "103818.752500", "103820.242500", "103821.732500", "103823.222500", "103824.712500", "103826.202500", "103827.692500", "103829.182500", "103830.672500", "103832.162500", "103833.652500", "103835.142500", "103836.632500", "103838.122500", "103839.612500", "103841.102500", "103842.592500", "103844.082500", "103845.572500", "103847.062500", "103848.552500", "103850.042500", "103851.532500", "103853.022500", "103854.512500", "103856.002500", "103857.492500", "103858.982500", "103900.472500", "103901.962500", "103903.452500", "103904.942500", "103906.432500", "103907.922500", "103909.412500", "103910.902500", "103912.392500", "103913.882500", "103915.372500", "103916.862500", "103918.352500", "103919.842500", "103921.332500", "103922.822500", "103924.312500", "103925.802500", "103927.292500", "103928.782500", "103930.272500", "103931.762500", "103933.252500", "103934.742500", "103936.232500", "103937.722500", "103939.212500", "103940.702500", "103942.192500", "103943.682500", "103945.172500", "103946.662500", "103948.152500", "103949.642500", "103951.132500", "103952.622500", "103954.112500", "103955.602500", "103957.092500", "103958.582500", "104000.072500", "104001.562500", "104003.052500", "104004.542500", "104006.032500", "104007.522500", "104009.012500", "104010.502500", "104011.992500", "104013.482500", "104014.972500", "104016.462500", "104017.952500", "104019.442500", "104020.932500", "104022.422500", "104023.912500", "104025.402500", "104026.892500", "104028.382500", "104029.872500", "104031.362500", "104032.852500", "104034.342500", "104035.832500", "104037.322500", "104038.812500", "104040.302500", "104041.792500", "104043.282500", "104044.772500", "104046.262500", "104047.752500", "104049.242500", "104050.732500", "104052.222500", "104053.712500", "104055.202500", "104056.692500", "104058.182500", "104059.672500", "104101.162500", "104102.652500", "104104.142500", "104105.632500", "104107.122500", "104108.612500", "104110.102500", "104111.592500", "104113.082500", "104114.572500", "104116.062500", "104117.552500", "104119.042500", "104120.532500", "104122.022500", "104123.512500", "104125.002500", "104126.492500", "104127.982500", "104129.472500", "104130.962500", "104132.452500", "104133.942500", "104135.432500", "104136.922500", "104138.412500", "104139.902500", "104141.392500", "104142.882500", "104144.372500", "104145.862500", "104147.352500", "104148.842500", "104150.332500", "104151.822500", "104153.312500", "104154.802500", "104156.292500", "104157.782500", "104159.272500", "104200.762500", "104202.252500", "104203.742500", "104205.232500", "104206.722500", "104208.212500", "104209.702500", "104211.192500", "104212.682500", "104214.172500", "104215.662500", "104217.152500", "104218.642500", "104220.132500", "104221.622500", "104223.112500", "104224.602500", "104226.092500", "104227.582500", "104229.072500", "104230.562500", "104232.052500", "104233.542500", "104235.032500", "104236.522500", "104238.012500", "104239.502500", "104240.992500", "104242.482500", "104243.972500", "104245.462500", "104246.952500", "104248.442500", "104249.932500", "104251.422500", "104252.912500", "104254.402500", "104255.892500", "104257.382500", "104258.872500", "104300.362500", "104301.852500", "104303.342500", "104304.832500", "104306.322500", "104307.812500", "104309.302500", "104310.792500", "104312.282500", "104313.772500", "104315.262500", "104316.752500", "104318.242500", "104319.732500", "104321.222500", "104322.712500", "104324.202500", "104325.692500", "104327.182500", "104328.672500", "104330.162500", "104331.652500", "104333.142500", "104334.632500", "104336.122500", "104337.612500", "104339.102500", "104340.592500", "104342.082500", "104343.572500", "104345.062500", "104346.552500", "104348.042500", "104349.532500", "104351.022500", "104352.512500", "104354.002500", "104355.492500", "104356.982500", "104358.472500", "104359.962500", "104401.452500", "104402.942500", "104404.432500", "104405.922500", "104407.412500", "104408.902500", "104410.392500", "104411.882500", "104413.372500", "104414.862500", "104416.352500", "104417.842500", "104419.332500", "104420.822500", "104422.312500", "104423.802500", "104425.292500", "104426.782500", "104428.272500", "104429.762500", "104431.252500", "104432.742500", "104434.232500", "104435.722500", "104437.212500", "104438.702500", "104440.192500", "104441.682500", "104443.172500", "104444.662500", "104446.152500", "104447.642500", "104449.132500", "104450.622500", "104452.112500", "104453.602500", "104455.092500", "104456.582500", "104458.072500", "104459.562500", "104501.052500", "104502.542500", "104504.032500", "104505.522500", "104507.012500", "104508.502500", "104509.992500", "104511.482500", "104512.972500", "104514.462500", "104515.952500", "104517.442500", "104518.932500", "104520.422500", "104521.912500", "104523.402500", "104524.892500", "104526.382500", "104527.872500", "104529.362500", "104530.852500", "104532.342500", "104533.832500", "104535.322500", "104536.812500", "104538.302500", "104539.792500", "104541.282500", "104542.772500"],
      "ContentTime": ["103606.853000", "103606.857000", "103606.859000", "103606.862000", "103606.865000", "103606.868000", "103606.871000", "103606.874000", "103606.877000", "103606.880000", "103606.883000", "103606.886000", "103606.889000", "103606.892000", "103606.895000", "103606.898000", "103606.901000", "103606.904000", "103606.907000", "103606.909000", "103606.912000", "103606.915000", "103606.918000", "103606.921000", "103606.924000", "103606.927000", "103606.930000", "103606.933000", "103606.936000", "103626.817000", "103626.820000", "103626.823000", "103626.826000", "103626.829000", "103626.832000", "103626.835000", "103626.838000", "103626.840000", "103626.843000", "103626.846000", "103626.849000", "103626.852000", "103626.855000", "103626.858000", "103626.861000", "103626.864000", "103626.867000", "103626.870000", "103626.873000", "103646.817000", "103646.820000", "103646.823000", "103646.826000", "103646.829000", "103646.832000", "103646.835000", "103646.838000", "103646.841000", "103646.844000", "103646.847000", "103646.850000", "103646.853000", "103646.855000", "103646.858000", "103646.861000", "103646.864000", "103646.867000", "103646.870000", "103646.873000", "103706.817000", "103706.820000", "103706.823000", "103706.827000", "103706.831000", "103706.834000", "103706.837000", "103706.840000", "103706.844000", "103706.847000", "103706.850000", "103706.853000", "103706.863000", "103706.866000", "103706.869000", "103706.871000", "103706.874000", "103706.877000", "103706.880000", "103706.883000", "103746.817000", "103746.820000", "103746.823000", "103746.826000", "103746.829000", "103746.832000", "103746.835000", "103746.838000", "103746.841000", "103746.844000", "103746.847000", "103746.849000", "103746.852000", "103746.855000", "103746.874000", "103746.877000", "103746.880000", "103746.883000", "103746.886000", "103746.889000", "103746.892000", "103746.895000", "103746.898000", "103746.901000", "103746.904000", "103746.907000", "103746.910000", "103746.913000", "103746.916000", "103746.919000", "103746.922000", "103746.925000", "103746.928000", "103826.817000", "103826.820000", "103826.823000", "103826.826000", "103826.829000", "103826.832000", "103826.835000", "103826.838000", "103826.841000", "103826.844000", "103826.847000", "103826.850000", "103826.853000", "103826.856000", "103826.859000", "103826.861000", "103826.864000", "103826.867000", "103826.870000", "103826.873000", "103826.876000", "103826.879000", "103826.882000", "103826.885000", "103826.888000", "103826.891000", "103826.894000", "103906.817000", "103906.885000", "103906.888000", "103906.891000", "103906.894000", "103906.897000", "103906.900000", "103906.903000", "103906.906000", "103906.909000", "103906.912000", "103906.915000", "103906.918000", "103906.921000", "103906.924000", "103906.926000", "103906.930000", "103906.932000", "103906.935000", "103906.938000", "103906.941000", "103906.944000", "103906.947000", "103906.950000", "103906.953000", "103906.956000", "103946.817000", "103946.820000", "103946.823000", "103946.826000", "103946.829000", "103946.832000", "103946.835000", "103946.838000", "103946.841000", "103946.844000", "103946.847000", "103946.850000", "103946.853000", "103946.856000", "103946.859000", "103946.862000", "103946.866000", "103946.869000", "103946.872000", "103946.875000", "103946.878000", "103946.881000", "103946.884000", "103946.886000", "103946.889000", "103946.892000", "103946.895000", "104026.817000", "104026.820000", "104026.823000", "104026.826000", "104026.829000", "104026.832000", "104026.835000", "104026.838000", "104026.841000", "104026.844000", "104026.847000", "104026.850000", "104026.853000", "104026.856000", "104026.859000", "104026.862000", "104026.865000", "104026.868000", "104026.871000", "104026.874000", "104026.877000", "104026.880000", "104026.883000", "104026.885000", "104026.888000", "104026.891000", "104026.894000", "104106.817000", "104106.820000", "104106.823000", "104106.826000", "104106.829000", "104106.832000", "104106.835000", "104106.838000", "104106.841000", "104106.844000", "104106.847000", "104106.850000", "104106.853000", "104106.856000", "104106.858000", "104106.861000", "104106.864000", "104106.867000", "104106.870000", "104106.873000", "104106.876000", "104106.879000", "104106.882000", "104106.885000", "104106.888000", "104106.891000", "104106.894000", "104146.817000", "104146.820000", "104146.823000", "104146.826000", "104146.829000", "104146.832000", "104146.835000", "104146.838000", "104146.841000", "104146.844000", "104146.847000", "104146.850000", "104146.853000", "104146.856000", "104146.859000", "104146.862000", "104146.865000", "104146.868000", "104146.871000", "104146.874000", "104146.876000", "104146.879000", "104146.882000", "104146.885000", "104146.888000", "104146.891000", "104146.894000", "104226.817000", "104226.920000", "104226.923000", "104226.926000", "104226.944000", "104226.947000", "104226.957000", "104226.960000", "104226.963000", "104226.966000", "104226.969000", "104226.972000", "104226.974000", "104226.977000", "104226.981000", "104226.984000", "104226.986000", "104226.989000", "104226.993000", "104226.996000", "104227.000000", "104227.002000", "104227.006000", "104227.008000", "104227.011000", "104227.014000", "104227.017000", "104306.817000", "104306.820000", "104306.823000", "104306.826000", "104306.829000", "104306.835000", "104306.838000", "104306.841000", "104306.844000", "104306.847000", "104306.850000", "104306.853000", "104306.856000", "104306.859000", "104306.862000", "104306.865000", "104306.868000", "104306.871000", "104306.874000", "104306.877000", "104306.880000", "104306.883000", "104306.886000", "104306.888000", "104306.891000", "104306.894000", "104306.897000", "104346.817000", "104346.820000", "104346.823000", "104346.826000", "104346.829000", "104346.832000", "104346.835000", "104346.838000", "104346.841000", "104346.844000", "104346.847000", "104346.850000", "104346.853000", "104346.856000", "104346.859000", "104346.862000", "104346.865000", "104346.868000", "104346.871000", "104346.874000", "104346.878000", "104346.881000", "104346.885000", "104346.888000", "104346.891000", "104346.894000", "104426.817000", "104426.820000", "104426.823000", "104426.826000", "104426.829000", "104426.832000", "104426.835000", "104426.838000", "104426.841000", "104426.844000", "104426.847000", "104426.850000", "104426.853000", "104426.856000", "104426.859000", "104426.862000", "104426.865000", "104426.867000", "104426.870000", "104426.873000", "104426.876000", "104426.879000", "104426.882000", "104426.885000", "104426.888000", "104426.891000", "104426.894000", "104506.817000", "104506.820000", "104506.823000", "104506.826000", "104506.829000", "104506.832000", "104506.835000", "104506.838000", "104506.841000", "104506.844000", "104506.847000", "104506.850000", "104506.853000", "104506.856000", "104506.859000", "104506.862000", "104506.865000", "104506.868000", "104506.871000", "104506.874000", "104506.877000", "104506.895000", "104506.898000", "104506.901000", "104506.904000", "104506.907000", "104506.910000", "104545.611000", "104545.615000", "104545.618000", "104545.621000", "104545.624000", "104545.627000", "104545.630000", "104545.633000", "104545.635000", "104545.638000", "104545.641000", "104545.644000", "104545.647000", "104545.650000", "104545.653000", "104545.656000", "104545.659000", "104545.662000", "104545.665000", "104545.668000", "104545.671000", "104545.674000", "104545.677000", "104545.680000", "104545.683000", "104545.685000"],
