{
  "AcquisitionMatrixPE": 104,
  "AcquisitionNumber": 1,
  "AcquisitionTime": "09:54:4.865000",
  "BandwidthPerPixelPhaseEncode": 17.17,
  "BaseResolution": 104,
  "BodyPartExamined": "BRAIN",
  "CoilString": "HC1-7;NC1_2",
  "ConsistencyInfo": "N4_VE11C_LATEST_20160120",
  "ConversionSoftware": "dcm2niix",
  "ConversionSoftwareVersion": "v1.0.20200427",
  "DerivedVendorReportedEchoSpacing": 0.000560011,
  "DeviceSerialNumber": "167006",
  "DwellTime": 2.1e-06,
  "EchoTime": 0.037,
  "EchoTrainLength": 104,
  "EffectiveEchoSpacing": 0.000560011,
  "FlipAngle": 52,
  "ImageComments": "Unaliased_MB4_PE3_LB",
  "ImageOrientationPatientDICOM": [0.999948, 0.00688008, 0.00753413, -0.00191977, 0.852117, -0.523348],
  "ImageType": [
    "ORIGINAL",
    "PRIMARY",
    "M",
    "MB",
    "ND",
    "MOSAIC"
],
  "ImagingFrequency": 123.259,
  "InPlanePhaseEncodingDirectionDICOM": "COL",
  "InstitutionAddress": "Chemin_Queen-Mary_4565_Montreal_District_CA_H3W_1W5",
  "InstitutionName": "IUGM",
  "InstitutionalDepartmentName": "Department",
  "MRAcquisitionType": "2D",
  "MagneticFieldStrength": 3,
  "Manufacturer": "Siemens",
  "ManufacturersModelName": "Prisma_fit",
  "Modality": "MR",
  "MultibandAccelerationFactor": 4,
  "PartialFourier": 1,
  "PatientPosition": "HFS",
  "PercentPhaseFOV": 100,
  "PercentSampling": 100,
  "PhaseEncodingDirection": "j",
  "PhaseEncodingSteps": 104,
  "PhaseResolution": 1,
  "PixelBandwidth": 2290,
  "ProcedureStepDescription": "games_shinobi",
  "ProtocolName": "func_task-shinobi_run-2",
  "PulseSequenceDetails": "%CustomerSeq%_cmrr_mbep2d_bold",
  "ReceiveCoilActiveElements": "HC1-7;NC1,2",
  "ReceiveCoilName": "HeadNeck_64",
  "ReconMatrixPE": 104,
  "RepetitionTime": 1.49,
  "SAR": 0.0273664,
  "ScanOptions": "FS",
  "ScanningSequence": "EP",
  "SequenceName": "epfid2d1_104",
  "SequenceVariant": "SK_SS",
  "SeriesDescription": "func_task-shinobi_run-2",
  "SeriesNumber": 11,
  "ShimSetting": [619, -7179, -8881, 371, 9, -190, -27, 8],
  "SliceThickness": 2,
  "SliceTiming": [0, 0.7825, 0.0975, 0.88, 0.195, 0.9775, 0.2925, 1.0775, 0.39, 1.175, 0.49, 1.2725, 0.5875, 1.37, 0.685, 0, 0.7825, 0.0975, 0.88, 0.195, 0.9775, 0.2925, 1.0775, 0.39, 1.175, 0.49, 1.2725, 0.5875, 1.37, 0.685, 0, 0.7825, 0.0975, 0.88, 0.195, 0.9775, 0.2925, 1.0775, 0.39, 1.175, 0.49, 1.2725, 0.5875, 1.37, 0.685, 0, 0.7825, 0.0975, 0.88, 0.195, 0.9775, 0.2925, 1.0775, 0.39, 1.175, 0.49, 1.2725, 0.5875, 1.37, 0.685],
  "SoftwareVersions": "syngo_MR_E11",
  "SpacingBetweenSlices": 2,
  "StationName": "MRC35049",
  "TaskName": "shinobi",
  "TotalReadoutTime": 0.0576811,
  "TxRefAmp": 230.736,
  "WipMemBlock": "c007b0a5-0902-41c9-9e1d-9b96fb52742e||Sequence: R016 ve11c/master r/e634e98; Dec 19 2017 11:00:25 by eja",
  "dcmmeta_affine": [
    [-1.9998959302902222, -0.00383953470736742, 0.02004126086831093, 106.45889282226562],
    [-0.013760159723460674, 1.70423424243927, -1.0466117858886719, -47.07535934448242],
    [0.015068250708281994, 1.0466952323913574, 1.7041720151901245, -102.17871856689453],
    [0.0, 0.0, 0.0, 1.0]
],
  "dcmmeta_reorient_transform": [
    [0.0, -1.0, 0.0, 103.0],
    [1.0, 0.0, 0.0, 0.0],
    [0.0, 0.0, 1.0, 0.0],
    [0.0, 0.0, 0.0, 1.0]
],
  "dcmmeta_shape": [104, 104, 60, 504],
  "dcmmeta_slice_dim": 2,
  "dcmmeta_version": 0.6,
  "global": {
    "const": {
      "AcquisitionMatrix": [104, 0, 0, 104],
      "AngioFlag": "N",
      "BitsAllocated": 16,
      "BitsStored": 16,
      "BodyPartExamined": "BRAIN",
      "Columns": 832,
      "EchoNumbers": 1,
      "EchoTime": 37.0,
      "EchoTrainLength": 104,
      "FlipAngle": 52.0,
      "HighBit": 15,
      "ImageOrientationPatient": [0.99994794937198, 0.00688008001102, 0.00753412541855, -0.0019197673439, 0.85211712203654, -0.5233476137573],
      "ImagePositionPatient": [-832.6279334703, -753.81072932403, 381.1431084612],
      "ImageType": [
        "ORIGINAL",
        "PRIMARY",
        "M",
        "MB",
        "ND",
        "MOSAIC"
],
      "ImagedNucleus": "1H",
      "ImagingFrequency": 123.259081,
      "InPlanePhaseEncodingDirection": "COL",
      "MRAcquisitionType": "2D",
      "MagneticFieldStrength": 3.0,
      "Manufacturer": "SIEMENS",
      "ManufacturerModelName": "Prisma_fit",
      "Modality": "MR",
      "NumberOfAverages": 1.0,
      "NumberOfPhaseEncodingSteps": 104,
      "PercentPhaseFieldOfView": 100.0,
      "PercentSampling": 100.0,
      "PerformedProcedureStepStartTime": "091523.933000",
      "PhotometricInterpretation": "MONOCHROME2",
      "PixelBandwidth": 2290.0,
      "PixelRepresentation": 0,
      "PixelSpacing": [2.0, 2.0],
      "ProtocolName": "func_task-shinobi_run-2",
      "RepetitionTime": 1490.0,
      "Rows": 832,
      "SAR": 0.02736638374967,
      "SamplesPerPixel": 1,
      "ScanOptions": "FS",
      "ScanningSequence": "EP",
      "SequenceName": "epfid2d1_104",
      "SequenceVariant": [
        "SK",
        "SS"
],
      "SeriesDescription": "func_task-shinobi_run-2",
      "SeriesNumber": 11,
      "SeriesTime": "095526.846000",
      "SliceLocation": -61.363454250927,
      "SliceThickness": 2.0,
      "SmallestImagePixelValue": 0,
      "SoftwareVersions": "syngo MR E11",
      "SpacingBetweenSlices": 2.0000000157959,
      "SpecificCharacterSet": "ISO_IR 100",
      "StudyID": "1",
      "StudyTime": "091523.831000",
      "TransmitCoilName": "Body",
      "VariableFlipAngleFlag": "N",
      "WindowCenterWidthExplanation": "Algo1",
      "dBdt": 0.0},
    "slices": {}
  },
  "time": {
    "samples": {
      "AcquisitionNumber": [1, 2, 3, 4, 5, 6, 7, 8, 9, 10, 11, 12, 13, 14, 15, 16, 17, 18, 19, 20, 21, 22, 23, 24, 25, 26, 27, 28, 29, 30, 31, 32, 33, 34, 35, 36, 37, 38, 39, 40, 41, 42, 43, 44, 45, 46, 47, 48, 49, 50, 51, 52, 53, 54, 55, 56, 57, 58, 59, 60, 61, 62, 63, 64, 65, 66, 67, 68, 69, 70, 71, 72, 73, 74, 75, 76, 77, 78, 79, 80, 81, 82, 83, 84, 85, 86, 87, 88, 89, 90, 91, 92, 93, 94, 95, 96, 97, 98, 99, 100, 101, 102, 103, 104, 105, 106, 107, 108, 109, 110, 111, 112, 113, 114, 115, 116, 117, 118, 119, 120, 121, 122, 123, 124, 125, 126, 127, 128, 129, 130, 131, 132, 133, 134, 135, 136, 137, 138, 139, 140, 141, 142, 143, 144, 145, 146, 147, 148, 149, 150, 151, 152, 153, 154, 155, 156, 157, 158, 159, 160, 161, 162, 163, 164, 165, 166, 167, 168, 169, 170, 171, 172, 173, 174, 175, 176, 177, 178, 179, 180, 181, 182, 183, 184, 185, 186, 187, 188, 189, 190, 191, 192, 193, 194, 195, 196, 197, 198, 199, 200, 201, 202, 203, 204, 205, 206, 207, 208, 209, 210, 211, 212, 213, 214, 215, 216, 217, 218, 219, 220, 221, 222, 223, 224, 225, 226, 227, 228, 229, 230, 231, 232, 233, 234, 235, 236, 237, 238, 239, 240, 241, 242, 243, 244, 245, 246, 247, 248, 249, 250, 251, 252, 253, 254, 255, 256, 257, 258, 259, 260, 261, 262, 263, 264, 265, 266, 267, 268, 269, 270, 271, 272, 273, 274, 275, 276, 277, 278, 279, 280, 281, 282, 283, 284, 285, 286, 287, 288, 289, 290, 291, 292, 293, 294, 295, 296, 297, 298, 299, 300, 301, 302, 303, 304, 305, 306, 307, 308, 309, 310, 311, 312, 313, 314, 315, 316, 317, 318, 319, 320, 321, 322, 323, 324, 325, 326, 327, 328, 329, 330, 331, 332, 333, 334, 335, 336, 337, 338, 339, 340, 341, 342, 343, 344, 345, 346, 347, 348, 349, 350, 351, 352, 353, 354, 355, 356, 357, 358, 359, 360, 361, 362, 363, 364, 365, 366, 367, 368, 369, 370, 371, 372, 373, 374, 375, 376, 377, 378, 379, 380, 381, 382, 383, 384, 385, 386, 387, 388, 389, 390, 391, 392, 393, 394, 395, 396, 397, 398, 399, 400, 401, 402, 403, 404, 405, 406, 407, 408, 409, 410, 411, 412, 413, 414, 415, 416, 417, 418, 419, 420, 421, 422, 423, 424, 425, 426, 427, 428, 429, 430, 431, 432, 433, 434, 435, 436, 437, 438, 439, 440, 441, 442, 443, 444, 445, 446, 447, 448, 449, 450, 451, 452, 453, 454, 455, 456, 457, 458, 459, 460, 461, 462, 463, 464, 465, 466, 467, 468, 469, 470, 471, 472, 473, 474, 475, 476, 477, 478, 479, 480, 481, 482, 483, 484, 485, 486, 487, 488, 489, 490, 491, 492, 493, 494, 495, 496, 497, 498, 499, 500, 501, 502, 503, 504],
      "AcquisitionTime": ["095404.865000", "095406.355000", "095407.845000", "095409.335000", "095410.825000", "095412.315000", "095413.805000", "095415.295000", "095416.785000", "095418.275000", "095419.765000", "095421.255000", "095422.745000", "095424.235000", "095425.725000", "095427.215000", "095428.705000", "095430.195000", "095431.685000", "095433.175000", "095434.665000", "095436.155000", "095437.645000", "095439.135000", "095440.625000", "095442.115000", "095443.605000", "095445.095000", "095446.585000", "095448.075000", "095449.565000", "095451.055000", "095452.545000", "095454.035000", "095455.525000", "095457.015000", "095458.505000", "095459.995000", "095501.485000", "095502.975000", "095504.465000", "095505.955000", "095507.445000", "095508.935000", "095510.425000", "095511.915000", "095513.405000", "095514.895000", "095516.385000", "095517.875000", "095519.365000", "095520.855000", "095522.345000", "095523.835000", "095525.325000", "095526.815000", "095528.305000", "095529.795000", "095531.285000", "095532.775000", "095534.265000", "095535.755000", "095537.245000", "095538.735000", "095540.225000", "095541.715000", "095543.205000", "095544.695000", "095546.185000", "095547.675000", "095549.165000", "095550.655000", "095552.145000", "095553.635000", "095555.125000", "095556.615000", "095558.105000", "095559.595000", "095601.085000", "095602.575000", "095604.065000", "095605.555000", "095607.045000", "095608.535000", "095610.025000", "095611.515000", "095613.005000", "095614.495000", "095615.985000", "095617.475000", "095618.965000", "095620.455000", "095621.945000", "095623.435000", "095624.925000", "095626.415000", "095627.905000", "095629.395000", "095630.885000", "095632.375000", "095633.865000", "095635.355000", "095636.845000", "095638.335000", "095639.825000", "095641.315000", "095642.805000", "095644.295000", "095645.785000", "095647.275000", "095648.765000", "095650.255000", "095651.745000", "095653.235000", "095654.725000", "095656.215000", "095657.705000", "095659.195000", "095700.685000", "095702.175000", "095703.665000", "095705.155000", "095706.645000", "095708.135000", "095709.625000", "095711.115000", "095712.605000", "095714.095000", "095715.585000", "095717.075000", "095718.565000", "095720.055000", "095721.545000", "095723.035000", "095724.525000", "095726.015000", "095727.505000", "095728.995000", "095730.485000", "095731.975000", "095733.465000", "095734.955000", "095736.445000", "095737.935000", "095739.425000", "095740.915000", "095742.405000", "095743.895000", "095745.385000", "095746.875000", "095748.365000", "095749.855000", "095751.345000", "095752.835000", "095754.325000", "095755.815000", "095757.305000", "095758.795000", "095800.285000", "095801.775000", "095803.265000", "095804.755000", "095806.245000", "095807.735000", "095809.225000", "095810.715000", "095812.205000", "095813.695000", "095815.185000", "095816.675000", "095818.165000", "095819.655000", "095821.145000", "095822.635000", "095824.125000", "095825.615000", "095827.105000", "095828.595000", "095830.085000", "095831.575000", "095833.065000", "095834.555000", "095836.045000", "095837.535000", "095839.025000", "095840.515000", "095842.005000", "095843.495000", "095844.985000", "095846.475000", "095847.965000", "095849.455000", "095850.945000", "095852.435000", "095853.925000", "095855.415000", "095856.905000", "095858.395000", "095859.885000", "095901.375000", "095902.865000", "095904.355000", "095905.845000", "095907.335000", "095908.825000", "095910.315000", "095911.805000", "095913.295000", "095914.785000", "095916.275000", "095917.765000", "095919.255000", "095920.745000", "095922.235000", "095923.725000", "095925.215000", "095926.705000", "095928.195000", "095929.685000", "095931.175000", "095932.665000", "095934.155000", "095935.645000", "095937.135000", "095938.625000", "095940.115000", "095941.605000", "095943.095000", "095944.585000", "095946.075000", "095947.565000", "095949.055000", "095950.545000", "095952.035000", "095953.525000", "095955.015000", "095956.505000", "095957.995000", "095959.485000", "100000.975000", "100002.465000", "100003.955000", "100005.445000", "100006.935000", "100008.425000", "100009.915000", "100011.405000", "100012.895000", "100014.385000", "100015.875000", "100017.365000", "100018.855000", "100020.345000", "100021.835000", "100023.325000", "100024.815000", "100026.305000", "100027.795000", "100029.285000", "100030.775000", "100032.265000", "100033.755000", "100035.245000", "100036.735000", "100038.225000", "100039.715000", "100041.205000", "100042.695000", "100044.185000", "100045.675000", "100047.165000", "100048.655000", "100050.145000", "100051.635000", "100053.125000", "100054.615000", "100056.105000", "100057.595000", "100059.085000", "100100.575000", "100102.065000", "100103.555000", "100105.045000", "100106.535000", "100108.025000", "100109.515000", "100111.005000", "100112.495000", "100113.985000", "100115.475000", "100116.965000", "100118.455000", "100119.945000", "100121.435000", "100122.925000", "100124.415000", "100125.905000", "100127.395000", "100128.885000", "100130.375000", "100131.865000", "100133.355000", "100134.845000", "100136.335000", "100137.825000", "100139.315000", "100140.805000", "100142.295000", "100143.785000", "100145.275000", "100146.765000", "100148.255000", "100149.745000", "100151.235000", "100152.725000", "100154.215000", "100155.705000", "100157.195000", "100158.685000", "100200.175000", "100201.665000", "100203.155000", "100204.645000", "100206.135000", "100207.625000", "100209.115000", "100210.605000", "100212.095000", "100213.585000", "100215.075000", "100216.565000", "100218.055000", "100219.545000", "100221.035000", "100222.525000", "100224.015000", "100225.505000", "100226.995000", "100228.485000", "100229.975000", "100231.465000", "100232.955000", "100234.445000", "100235.935000", "100237.425000", "100238.915000", "100240.405000", "100241.895000", "100243.385000", "100244.875000", "100246.365000", "100247.855000", "100249.345000", "100250.835000", "100252.325000", "100253.815000", "100255.305000", "100256.795000", "100258.285000", "100259.775000", "100301.265000", "100302.755000", "100304.245000", "100305.735000", "100307.225000", "100308.715000", "100310.205000", "100311.695000", "100313.185000", "100314.675000", "100316.165000", "100317.655000", "100319.145000", "100320.635000", "100322.125000", "100323.615000", "100325.105000", "100326.595000", "100328.085000", "100329.575000", "100331.065000", "100332.555000", "100334.045000", "100335.535000", "100337.025000", "100338.515000", "100340.005000", "100341.495000", "100342.985000", "100344.475000", "100345.965000", "100347.455000", "100348.945000", "100350.435000", "100351.925000", "100353.415000", "100354.905000", "100356.395000", "100357.885000", "100359.375000", "100400.865000", "100402.355000", "100403.845000", "100405.335000", "100406.825000", "100408.315000", "100409.805000", "100411.295000", "100412.785000", "100414.275000", "100415.765000", "100417.255000", "100418.745000", "100420.235000", "100421.725000", "100423.215000", "100424.705000", "100426.195000", "100427.685000", "100429.175000", "100430.665000", "100432.155000", "100433.645000", "100435.135000", "100436.625000", "100438.115000", "100439.605000", "100441.095000", "100442.585000", "100444.075000", "100445.565000", "100447.055000", "100448.545000", "100450.035000", "100451.525000", "100453.015000", "100454.505000", "100455.995000", "100457.485000", "100458.975000", "100500.465000", "100501.955000", "100503.445000", "100504.935000", "100506.425000", "100507.915000", "100509.405000", "100510.895000", "100512.385000", "100513.875000", "100515.365000", "100516.855000", "100518.345000", "100519.835000", "100521.325000", "100522.815000", "100524.305000", "100525.795000", "100527.285000", "100528.775000", "100530.265000", "100531.755000", "100533.245000", "100534.735000", "100536.225000", "100537.715000", "100539.205000", "100540.695000", "100542.185000", "100543.675000", "100545.165000", "100546.655000", "100548.145000", "100549.635000", "100551.125000", "100552.615000", "100554.105000", "100555.595000", "100557.085000", "100558.575000", "100600.065000", "100601.555000", "100603.045000", "100604.535000", "100606.025000", "100607.515000", "100609.005000", "100610.495000", "100611.985000", "100613.475000", "100614.965000", "100616.455000", "100617.945000", "100619.435000", "100620.925000", "100622.415000", "100623.905000", "100625.395000", "100626.885000", "100628.375000", "100629.865000", "100631.355000", "100632.845000", "100634.335000"],
      "ContentTime": ["095526.849000", "095526.852000", "095526.856000", "095526.858000", "095526.861000", "095526.864000", "095526.867000", "095526.870000", "095526.873000", "095526.876000", "095526.879000", "095526.882000", "095526.885000", "095526.888000", "095526.891000", "095526.894000", "095526.897000", "095526.900000", "095526.903000", "095526.906000", "095526.918000", "095526.921000", "095526.924000", "095526.927000", "095526.930000", "095526.933000", "095526.936000", "095526.939000", "095526.942000", "095546.817000", "095546.820000", "095546.823000", "095546.826000", "095546.829000", "095546.832000", "095546.835000", "095546.837000", "095546.840000", "095546.843000", "095546.846000", "095546.849000", "095546.852000", "095546.855000", "095546.858000", "095546.861000", "095546.864000", "095546.867000", "095546.870000", "095546.873000", "095606.817000", "095606.820000", "095606.823000", "095606.826000", "095606.829000", "095606.832000", "095606.835000", "095606.837000", "095606.840000", "095606.843000", "095606.846000", "095606.849000", "095606.852000", "095606.855000", "095606.858000", "095606.861000", "095606.864000", "095606.867000", "095606.869000", "095606.872000", "095626.817000", "095626.820000", "095626.823000", "095626.826000", "095626.829000", "095626.832000", "095626.835000", "095626.838000", "095626.841000", "095626.844000", "095626.847000", "095626.850000", "095626.852000", "095626.855000", "095626.858000", "095626.861000", "095626.864000", "095626.867000", "095626.870000", "095626.873000", "095626.876000", "095706.817000", "095706.820000", "095706.823000", "095706.826000", "095706.829000", "095706.840000", "095706.843000", "095706.846000", "095706.849000", "095706.852000", "095706.855000", "095706.858000", "095706.861000", "095706.875000", "095706.878000", "095706.881000", "095706.883000", "095706.886000", "095706.889000", "095706.892000", "095706.895000", "095706.898000", "095706.901000", "095706.904000", "095706.907000", "095706.910000", "095706.913000", "095706.916000", "095706.919000", "095706.922000", "095706.925000", "095706.928000", "095746.817000", "095746.820000", "095746.823000", "095746.826000", "095746.829000", "095746.832000", "095746.835000", "095746.838000", "095746.841000", "095746.844000", "095746.847000", "095746.850000", "095746.852000", "095746.856000", "095746.858000", "095746.861000", "095746.864000", "095746.867000", "095746.870000", "095746.873000", "095746.876000", "095746.879000", "095746.882000", "095746.885000", "095746.888000", "095746.891000", "095826.817000", "095826.820000", "095826.823000", "095826.826000", "095826.829000", "095826.832000", "095826.835000", "095826.838000", "095826.841000", "095826.844000", "095826.847000", "095826.850000", "095826.852000", "095826.856000", "095826.858000", "095826.861000", "095826.864000", "095826.867000", "095826.870000", "095826.873000", "095826.876000", "095826.879000", "095826.882000", "095826.885000", "095826.888000", "095826.891000", "095826.894000", "095906.817000", "095906.820000", "095906.823000", "095906.826000", "095906.829000", "095906.832000", "095906.835000", "095906.838000", "095906.841000", "095906.844000", "095906.847000", "095906.849000", "095906.852000", "095906.855000", "095906.858000", "095906.861000", "095906.864000", "095906.867000", "095906.870000", "095906.873000", "095906.876000", "095906.879000", "095906.882000", "095906.885000", "095906.888000", "095906.890000", "095906.893000", "095946.817000", "095946.820000", "095946.823000", "095946.826000", "095946.829000", "095946.832000", "095946.835000", "095946.838000", "095946.841000", "095946.844000", "095946.847000", "095946.850000", "095946.853000", "095946.855000", "095946.858000", "095946.861000", "095946.864000", "095946.867000", "095946.870000", "095946.873000", "095946.876000", "095946.879000", "095946.882000", "095946.885000", "095946.888000", "095946.891000", "095946.894000", "100026.817000", "100026.820000", "100026.823000", "100026.826000", "100026.829000", "100026.832000", "100026.835000", "100026.838000", "100026.841000", "100026.844000", "100026.847000", "100026.850000", "100026.852000", "100026.855000", "100026.858000", "100026.861000", "100026.864000", "100026.867000", "100026.870000", "100026.873000", "100026.876000", "100026.879000", "100026.882000", "100026.885000", "100026.888000", "100026.891000", "100026.894000", "100106.817000", "100106.820000", "100106.823000", "100106.826000", "100106.829000", "100106.832000", "100106.835000", "100106.838000", "100106.841000", "100106.843000", "100106.846000", "100106.849000", "100106.852000", "100106.855000", "100106.858000", "100106.861000", "100106.864000", "100106.867000", "100106.870000", "100106.873000", "100106.876000", "100106.879000", "100106.882000", "100106.884000", "100106.887000", "100106.890000", "100106.893000", "100146.817000", "100146.820000", "100146.823000", "100146.826000", "100146.848000", "100146.851000", "100146.854000", "100146.857000", "100146.860000", "100146.863000", "100146.866000", "100146.869000", "100146.872000", "100146.875000", "100146.878000", "100146.880000", "100146.883000", "100146.886000", "100146.889000", "100146.892000", "100146.895000", "100146.898000", "100146.901000", "100146.904000", "100146.907000", "100146.910000", "100226.817000", "100226.820000", "100226.823000", "100226.826000", "100226.829000", "100226.832000", "100226.835000", "100226.838000", "100226.841000", "100226.843000", "100226.846000", "100226.849000", "100226.852000", "100226.855000", "100226.858000", "100226.861000", "100226.864000", "100226.866000", "100226.869000", "100226.872000", "100226.875000", "100226.878000", "100226.881000", "100226.884000", "100226.887000", "100226.890000", "100226.892000", "100306.817000", "100306.821000", "100306.823000", "100306.826000", "100306.829000", "100306.832000", "100306.835000", "100306.838000", "100306.841000", "100306.844000", "100306.847000", "100306.850000", "100306.853000", "100306.856000", "100306.859000", "100306.862000", "100306.865000", "100306.868000", "100306.871000", "100306.873000", "100306.876000", "100306.879000", "100306.882000", "100306.885000", "100306.888000", "100306.891000", "100306.894000", "100346.817000", "100346.820000", "100346.823000", "100346.826000", "100346.829000", "100346.832000", "100346.835000", "100346.838000", "100346.841000", "100346.844000", "100346.847000", "100346.850000", "100346.853000", "100346.856000", "100346.858000", "100346.861000", "100346.865000", "100346.867000", "100346.870000", "100346.873000", "100346.876000", "100346.879000", "100346.882000", "100346.885000", "100346.888000", "100346.891000", "100346.894000", "100426.817000", "100426.820000", "100426.823000", "100426.826000", "100426.829000", "100426.832000", "100426.835000", "100426.838000", "100426.841000", "100426.844000", "100426.847000", "100426.850000", "100426.853000", "100426.855000", "100426.858000", "100426.861000", "100426.864000", "100426.867000", "100426.870000", "100426.873000", "100426.876000", "100426.879000", "100426.882000", "100426.885000", "100426.888000", "100426.891000", "100426.894000", "100506.817000", "100506.820000", "100506.823000", "100506.826000", "100506.829000", "100506.832000", "100506.835000", "100506.838000", "100506.841000", "100506.844000", "100506.847000", "100506.850000", "100506.853000", "100506.856000", "100506.859000", "100506.862000", "100506.865000", "100506.867000", "100506.870000", "100506.873000", "100506.876000", "100506.879000", "100506.882000", "100506.885000", "100506.888000", "100506.891000", "100506.894000", "100546.817000", "100546.821000", "100546.824000", "100546.826000", "100546.829000", "100546.833000", "100546.836000", "100546.839000", "100546.842000", "100546.845000", "100546.848000", "100546.851000", "100546.854000", "100546.857000", "100546.860000", "100546.863000", "100546.865000", "100546.868000", "100546.871000", "100546.874000", "100546.877000", "100546.880000", "100546.883000", "100546.886000", "100546.889000", "100546.892000", "100546.895000", "100626.817000", "100626.820000", "100626.823000", "100626.826000", "100626.829000", "100626.832000", "100626.835000", "100626.838000", "100626.841000", "100626.844000", "100626.847000", "100626.850000", "100626.853000", "100626.856000", "100626.859000", "100626.862000", "100626.865000", "100626.867000", "100626.871000", "100626.874000", "100626.876000", "100626.879000", "100626.882000", "100626.885000", "100626.888000", "100626.891000", "100636.616000", "100636.619000", "100636.622000", "100636.625000", "100636.628000", "100636.631000", "100636.635000"],
