{
  "AcquisitionMatrixPE": 104,
  "AcquisitionNumber": 1,
  "AcquisitionTime": "11:26:23.942500",
  "BandwidthPerPixelPhaseEncode": 17.17,
  "BaseResolution": 104,
  "BodyPartExamined": "BRAIN",
  "CoilString": "HC1-7;NC1_2",
  "ConsistencyInfo": "N4_VE11C_LATEST_20160120",
  "ConversionSoftware": "dcm2niix",
  "ConversionSoftwareVersion": "v1.0.20190902",
  "DerivedVendorReportedEchoSpacing": 0.000560011,
  "DeviceSerialNumber": "167006",
  "DwellTime": 2.1e-06,
  "EchoTime": 0.037,
  "EchoTrainLength": 104,
  "EffectiveEchoSpacing": 0.000560011,
  "FlipAngle": 52,
  "ImageComments": "Unaliased_MB4_PE3_LB",
  "ImageOrientationPatientDICOM": [0.994492, 0.101173, 0.0273815, -0.0906809, 0.961533, -0.259289],
  "ImageType": [
    "ORIGINAL",
    "PRIMARY",
    "M",
    "MB",
    "ND",
    "MOSAIC"
],
  "ImagingFrequency": 123.259,
  "InPlanePhaseEncodingDirectionDICOM": "COL",
  "InstitutionAddress": "Chemin_Queen-Mary_4565_Montreal_District_CA_H3W_1W5",
  "InstitutionName": "IUGM",
  "InstitutionalDepartmentName": "Department",
  "MRAcquisitionType": "2D",
  "MagneticFieldStrength": 3,
  "Manufacturer": "Siemens",
  "ManufacturersModelName": "Prisma_fit",
  "Modality": "MR",
  "MultibandAccelerationFactor": 4,
  "PartialFourier": 1,
  "PatientPosition": "HFS",
  "PercentPhaseFOV": 100,
  "PhaseEncodingDirection": "j",
  "PhaseEncodingSteps": 104,
  "PhaseResolution": 1,
  "PixelBandwidth": 2290,
  "ProcedureStepDescription": "games_shinobi",
  "ProtocolName": "func_task-shinobi_run-4",
  "PulseSequenceDetails": "%CustomerSeq%_cmrr_mbep2d_bold",
  "ReceiveCoilActiveElements": "HC1-7;NC1,2",
  "ReceiveCoilName": "HeadNeck_64",
  "ReconMatrixPE": 104,
  "RepetitionTime": 1.49,
  "SAR": 0.0388934,
  "ScanOptions": "FS",
  "ScanningSequence": "EP",
  "SequenceName": "epfid2d1_104",
  "SequenceVariant": "SK_SS",
  "SeriesDescription": "func_task-shinobi_run-4",
  "SeriesNumber": 15,
  "ShimSetting": [627, -7220, -8824, 672, 80, -45, 84, -22],
  "SliceThickness": 2,
  "SliceTiming": [0, 0.785, 0.0975, 0.8825, 0.195, 0.98, 0.295, 1.0775, 0.3925, 1.175, 0.49, 1.275, 0.5875, 1.3725, 0.685, 0, 0.785, 0.0975, 0.8825, 0.195, 0.98, 0.295, 1.0775, 0.3925, 1.175, 0.49, 1.275, 0.5875, 1.3725, 0.685, 0, 0.785, 0.0975, 0.8825, 0.195, 0.98, 0.295, 1.0775, 0.3925, 1.175, 0.49, 1.275, 0.5875, 1.3725, 0.685, 0, 0.785, 0.0975, 0.8825, 0.195, 0.98, 0.295, 1.0775, 0.3925, 1.175, 0.49, 1.275, 0.5875, 1.3725, 0.685],
  "SoftwareVersions": "syngo_MR_E11",
  "SpacingBetweenSlices": 2,
  "StationName": "MRC35049",
  "TaskName": "shinobi",
  "TotalReadoutTime": 0.0576811,
  "TxRefAmp": 245.762,
  "WipMemBlock": "a1a415ee-542b-4afa-b9b6-a5b33edab9b6||Sequence: R016 ve11c/master r/e634e98; Dec 19 2017 11:00:25 by eja",
  "dcmmeta_affine": [
    [-1.9889839887619019, -0.18136176466941833, 0.10512246191501617, 111.36587524414062],
    [-0.2023458331823349, 1.9230666160583496, -0.5107553005218506, -54.90427017211914],
    [0.054763004183769226, 0.5185776352882385, 1.9308232069015503, -51.025150299072266],
    [0.0, 0.0, 0.0, 1.0]
],
  "dcmmeta_reorient_transform": [
    [0.0, -1.0, 0.0, 103.0],
    [1.0, 0.0, 0.0, 0.0],
    [0.0, 0.0, 1.0, 0.0],
    [0.0, 0.0, 0.0, 1.0]
],
  "dcmmeta_shape": [104, 104, 60, 459],
  "dcmmeta_slice_dim": 2,
  "dcmmeta_version": 0.6,
  "global": {
    "const": {
      "AcquisitionMatrix": [104, 0, 0, 104],
      "AngioFlag": "N",
      "BitsAllocated": 16,
      "BitsStored": 16,
      "BodyPartExamined": "BRAIN",
      "Columns": 832,
      "EchoNumbers": 1,
      "EchoTime": 37.0,
      "EchoTrainLength": 104,
      "FlipAngle": 52.0,
      "HighBit": 15,
      "ImageOrientationPatient": [0.99449197834226, 0.10117291315364, 0.02738150209353, -0.0906808805905, 0.96153330286382, -0.2592888068913],
      "ImagePositionPatient": [-750.66008940153, -916.8217143962, 171.2168608834],
      "ImageType": [
        "ORIGINAL",
        "PRIMARY",
        "M",
        "MB",
        "ND",
        "MOSAIC"
],
      "ImagedNucleus": "1H",
      "ImagingFrequency": 123.259362,
      "InPlanePhaseEncodingDirection": "COL",
      "MRAcquisitionType": "2D",
      "MagneticFieldStrength": 3.0,
      "Manufacturer": "SIEMENS",
      "ManufacturerModelName": "Prisma_fit",
      "Modality": "MR",
      "NumberOfAverages": 1.0,
      "NumberOfPhaseEncodingSteps": 104,
      "PercentPhaseFieldOfView": 100.0,
      "PercentSampling": 100.0,
      "PerformedProcedureStepStartTime": "104808.669000",
      "PhotometricInterpretation": "MONOCHROME2",
      "PixelBandwidth": 2290.0,
      "PixelRepresentation": 0,
      "PixelSpacing": [2.0, 2.0],
      "ProtocolName": "func_task-shinobi_run-4",
      "RepetitionTime": 1490.0,
      "Rows": 832,
      "SAR": 0.03889341770014,
      "SamplesPerPixel": 1,
      "ScanOptions": "FS",
      "ScanningSequence": "EP",
      "SequenceName": "epfid2d1_104",
      "SequenceVariant": [
        "SK",
        "SS"
],
      "SeriesDescription": "func_task-shinobi_run-4",
      "SeriesNumber": 15,
      "SeriesTime": "112758.350000",
      "SliceLocation": -29.385421657669,
      "SliceThickness": 2.0,
      "SmallestImagePixelValue": 0,
      "SoftwareVersions": "syngo MR E11",
      "SpacingBetweenSlices": 1.9999999978553,
      "SpecificCharacterSet": "ISO_IR 100",
      "StudyID": "1",
      "StudyTime": "104808.555000",
      "TransmitCoilName": "Body",
      "VariableFlipAngleFlag": "N",
      "WindowCenterWidthExplanation": "Algo1",
      "dBdt": 0.0},
    "slices": {}
  },
  "time": {
    "samples": {
      "AcquisitionNumber": [1, 2, 3, 4, 5, 6, 7, 8, 9, 10, 11, 12, 13, 14, 15, 16, 17, 18, 19, 20, 21, 22, 23, 24, 25, 26, 27, 28, 29, 30, 31, 32, 33, 34, 35, 36, 37, 38, 39, 40, 41, 42, 43, 44, 45, 46, 47, 48, 49, 50, 51, 52, 53, 54, 55, 56, 57, 58, 59, 60, 61, 62, 63, 64, 65, 66, 67, 68, 69, 70, 71, 72, 73, 74, 75, 76, 77, 78, 79, 80, 81, 82, 83, 84, 85, 86, 87, 88, 89, 90, 91, 92, 93, 94, 95, 96, 97, 98, 99, 100, 101, 102, 103, 104, 105, 106, 107, 108, 109, 110, 111, 112, 113, 114, 115, 116, 117, 118, 119, 120, 121, 122, 123, 124, 125, 126, 127, 128, 129, 130, 131, 132, 133, 134, 135, 136, 137, 138, 139, 140, 141, 142, 143, 144, 145, 146, 147, 148, 149, 150, 151, 152, 153, 154, 155, 156, 157, 158, 159, 160, 161, 162, 163, 164, 165, 166, 167, 168, 169, 170, 171, 172, 173, 174, 175, 176, 177, 178, 179, 180, 181, 182, 183, 184, 185, 186, 187, 188, 189, 190, 191, 192, 193, 194, 195, 196, 197, 198, 199, 200, 201, 202, 203, 204, 205, 206, 207, 208, 209, 210, 211, 212, 213, 214, 215, 216, 217, 218, 219, 220, 221, 222, 223, 224, 225, 226, 227, 228, 229, 230, 231, 232, 233, 234, 235, 236, 237, 238, 239, 240, 241, 242, 243, 244, 245, 246, 247, 248, 249, 250, 251, 252, 253, 254, 255, 256, 257, 258, 259, 260, 261, 262, 263, 264, 265, 266, 267, 268, 269, 270, 271, 272, 273, 274, 275, 276, 277, 278, 279, 280, 281, 282, 283, 284, 285, 286, 287, 288, 289, 290, 291, 292, 293, 294, 295, 296, 297, 298, 299, 300, 301, 302, 303, 304, 305, 306, 307, 308, 309, 310, 311, 312, 313, 314, 315, 316, 317, 318, 319, 320, 321, 322, 323, 324, 325, 326, 327, 328, 329, 330, 331, 332, 333, 334, 335, 336, 337, 338, 339, 340, 341, 342, 343, 344, 345, 346, 347, 348, 349, 350, 351, 352, 353, 354, 355, 356, 357, 358, 359, 360, 361, 362, 363, 364, 365, 366, 367, 368, 369, 370, 371, 372, 373, 374, 375, 376, 377, 378, 379, 380, 381, 382, 383, 384, 385, 386, 387, 388, 389, 390, 391, 392, 393, 394, 395, 396, 397, 398, 399, 400, 401, 402, 403, 404, 405, 406, 407, 408, 409, 410, 411, 412, 413, 414, 415, 416, 417, 418, 419, 420, 421, 422, 423, 424, 425, 426, 427, 428, 429, 430, 431, 432, 433, 434, 435, 436, 437, 438, 439, 440, 441, 442, 443, 444, 445, 446, 447, 448, 449, 450, 451, 452, 453, 454, 455, 456, 457, 458, 459],
      "AcquisitionTime": ["112623.942500", "112625.432500", "112626.922500", "112628.412500", "112629.902500", "112631.392500", "112632.882500", "112634.372500", "112635.862500", "112637.352500", "112638.842500", "112640.332500", "112641.822500", "112643.312500", "112644.802500", "112646.292500", "112647.782500", "112649.272500", "112650.762500", "112652.252500", "112653.742500", "112655.232500", "112656.722500", "112658.212500", "112659.702500", "112701.192500", "112702.682500", "112704.172500", "112705.662500", "112707.152500", "112708.642500", "112710.132500", "112711.622500", "112713.112500", "112714.602500", "112716.092500", "112717.582500", "112719.072500", "112720.562500", "112722.052500", "112723.542500", "112725.032500", "112726.522500", "112728.012500", "112729.502500", "112730.992500", "112732.482500", "112733.972500", "112735.462500", "112736.952500", "112738.442500", "112739.932500", "112741.422500", "112742.912500", "112744.402500", "112745.892500", "112747.382500", "112748.872500", "112750.362500", "112751.852500", "112753.342500", "112754.832500", "112756.322500", "112757.812500", "112759.302500", "112800.792500", "112802.282500", "112803.772500", "112805.262500", "112806.752500", "112808.242500", "112809.732500", "112811.222500", "112812.712500", "112814.202500", "112815.692500", "112817.182500", "112818.672500", "112820.162500", "112821.652500", "112823.142500", "112824.632500", "112826.122500", "112827.612500", "112829.102500", "112830.592500", "112832.082500", "112833.572500", "112835.062500", "112836.552500", "112838.042500", "112839.532500", "112841.022500", "112842.512500", "112844.002500", "112845.492500", "112846.982500", "112848.472500", "112849.962500", "112851.452500", "112852.942500", "112854.432500", "112855.922500", "112857.412500", "112858.902500", "112900.392500", "112901.882500", "112903.372500", "112904.862500", "112906.352500", "112907.842500", "112909.332500", "112910.822500", "112912.312500", "112913.802500", "112915.292500", "112916.782500", "112918.272500", "112919.762500", "112921.252500", "112922.742500", "112924.232500", "112925.722500", "112927.212500", "112928.702500", "112930.192500", "112931.682500", "112933.172500", "112934.662500", "112936.152500", "112937.642500", "112939.132500", "112940.622500", "112942.112500", "112943.602500", "112945.092500", "112946.582500", "112948.072500", "112949.562500", "112951.052500", "112952.542500", "112954.032500", "112955.522500", "112957.012500", "112958.502500", "112959.992500", "113001.482500", "113002.972500", "113004.462500", "113005.952500", "113007.442500", "113008.932500", "113010.422500", "113011.912500", "113013.402500", "113014.892500", "113016.382500", "113017.872500", "113019.362500", "113020.852500", "113022.342500", "113023.832500", "113025.322500", "113026.812500", "113028.302500", "113029.792500", "113031.282500", "113032.772500", "113034.262500", "113035.752500", "113037.242500", "113038.732500", "113040.222500", "113041.712500", "113043.202500", "113044.692500", "113046.182500", "113047.672500", "113049.162500", "113050.652500", "113052.142500", "113053.632500", "113055.122500", "113056.612500", "113058.102500", "113059.592500", "113101.082500", "113102.572500", "113104.062500", "113105.552500", "113107.042500", "113108.532500", "113110.022500", "113111.512500", "113113.002500", "113114.492500", "113115.982500", "113117.472500", "113118.962500", "113120.452500", "113121.942500", "113123.432500", "113124.922500", "113126.412500", "113127.902500", "113129.392500", "113130.882500", "113132.372500", "113133.862500", "113135.352500", "113136.842500", "113138.332500", "113139.822500", "113141.312500", "113142.802500", "113144.292500", "113145.782500", "113147.272500", "113148.762500", "113150.252500", "113151.742500", "113153.232500", "113154.722500", "113156.212500", "113157.702500", "113159.192500", "113200.682500", "113202.172500", "113203.662500", "113205.152500", "113206.642500", "113208.132500", "113209.622500", "113211.112500", "113212.602500", "113214.092500", "113215.582500", "113217.072500", "113218.562500", "113220.052500", "113221.542500", "113223.032500", "113224.522500", "113226.012500", "113227.502500", "113228.992500", "113230.482500", "113231.972500", "113233.462500", "113234.952500", "113236.442500", "113237.932500", "113239.422500", "113240.912500", "113242.402500", "113243.892500", "113245.382500", "113246.872500", "113248.362500", "113249.852500", "113251.342500", "113252.832500", "113254.322500", "113255.812500", "113257.302500", "113258.792500", "113300.282500", "113301.772500", "113303.262500", "113304.752500", "113306.242500", "113307.732500", "113309.222500", "113310.712500", "113312.202500", "113313.692500", "113315.182500", "113316.672500", "113318.162500", "113319.652500", "113321.142500", "113322.632500", "113324.122500", "113325.612500", "113327.102500", "113328.592500", "113330.082500", "113331.572500", "113333.062500", "113334.552500", "113336.042500", "113337.532500", "113339.022500", "113340.512500", "113342.002500", "113343.492500", "113344.982500", "113346.472500", "113347.962500", "113349.452500", "113350.942500", "113352.432500", "113353.922500", "113355.412500", "113356.902500", "113358.392500", "113359.882500", "113401.372500", "113402.862500", "113404.352500", "113405.842500", "113407.332500", "113408.822500", "113410.312500", "113411.802500", "113413.292500", "113414.782500", "113416.272500", "113417.762500", "113419.252500", "113420.742500", "113422.232500", "113423.722500", "113425.212500", "113426.702500", "113428.192500", "113429.682500", "113431.172500", "113432.662500", "113434.152500", "113435.642500", "113437.132500", "113438.622500", "113440.112500", "113441.602500", "113443.092500", "113444.582500", "113446.072500", "113447.562500", "113449.052500", "113450.542500", "113452.032500", "113453.522500", "113455.012500", "113456.502500", "113457.992500", "113459.482500", "113500.972500", "113502.462500", "113503.952500", "113505.442500", "113506.932500", "113508.422500", "113509.912500", "113511.402500", "113512.892500", "113514.382500", "113515.872500", "113517.362500", "113518.852500", "113520.342500", "113521.832500", "113523.322500", "113524.812500", "113526.302500", "113527.792500", "113529.282500", "113530.772500", "113532.262500", "113533.752500", "113535.242500", "113536.732500", "113538.222500", "113539.712500", "113541.202500", "113542.692500", "113544.182500", "113545.672500", "113547.162500", "113548.652500", "113550.142500", "113551.632500", "113553.122500", "113554.612500", "113556.102500", "113557.592500", "113559.082500", "113600.572500", "113602.062500", "113603.552500", "113605.042500", "113606.532500", "113608.022500", "113609.512500", "113611.002500", "113612.492500", "113613.982500", "113615.472500", "113616.962500", "113618.452500", "113619.942500", "113621.432500", "113622.922500", "113624.412500", "113625.902500", "113627.392500", "113628.882500", "113630.372500", "113631.862500", "113633.352500", "113634.842500", "113636.332500", "113637.822500", "113639.312500", "113640.802500", "113642.292500", "113643.782500", "113645.272500", "113646.762500", "113648.252500", "113649.742500", "113651.232500", "113652.722500", "113654.212500", "113655.702500", "113657.192500", "113658.682500", "113700.172500", "113701.662500", "113703.152500", "113704.642500", "113706.132500", "113707.622500", "113709.112500", "113710.602500", "113712.092500", "113713.582500", "113715.072500", "113716.562500", "113718.052500", "113719.542500", "113721.032500", "113722.522500", "113724.012500", "113725.502500", "113726.992500", "113728.482500", "113729.972500", "113731.462500", "113732.952500", "113734.442500", "113735.932500", "113737.422500", "113738.912500", "113740.402500", "113741.892500", "113743.382500", "113744.872500", "113746.362500"],
      "ContentTime": ["112758.353000", "112758.356000", "112758.365000", "112758.368000", "112758.371000", "112758.374000", "112758.377000", "112758.380000", "112758.383000", "112758.386000", "112758.389000", "112758.392000", "112758.395000", "112758.399000", "112758.402000", "112758.405000", "112758.408000", "112758.411000", "112758.414000", "112758.417000", "112758.420000", "112758.423000", "112758.426000", "112758.430000", "112758.433000", "112758.436000", "112758.439000", "112758.442000", "112758.445000", "112758.448000", "112758.451000", "112758.454000", "112758.457000", "112758.460000", "112758.463000", "112758.466000", "112758.469000", "112758.472000", "112758.475000", "112818.321000", "112818.324000", "112818.327000", "112818.330000", "112818.334000", "112818.337000", "112818.340000", "112818.343000", "112818.346000", "112818.349000", "112818.352000", "112818.354000", "112818.358000", "112818.361000", "112818.364000", "112818.367000", "112818.370000", "112818.373000", "112818.378000", "112818.381000", "112838.321000", "112838.324000", "112838.327000", "112838.330000", "112838.333000", "112838.336000", "112838.339000", "112838.342000", "112838.346000", "112838.349000", "112838.352000", "112838.355000", "112838.358000", "112838.361000", "112838.364000", "112838.367000", "112838.370000", "112838.373000", "112838.376000", "112838.379000", "112858.320000", "112858.323000", "112858.326000", "112858.329000", "112858.332000", "112858.335000", "112858.338000", "112858.341000", "112858.344000", "112858.347000", "112858.350000", "112858.353000", "112858.357000", "112858.360000", "112858.363000", "112858.365000", "112858.369000", "112858.372000", "112858.375000", "112858.378000", "112938.320000", "112938.323000", "112938.326000", "112938.329000", "112938.332000", "112938.335000", "112938.338000", "112938.341000", "112938.344000", "112938.347000", "112938.351000", "112938.354000", "112938.356000", "112938.359000", "112938.363000", "112938.366000", "112938.369000", "112938.372000", "112938.375000", "112938.378000", "112938.381000", "112938.384000", "112938.387000", "112938.390000", "112938.393000", "112938.396000", "112938.399000", "112938.402000", "112938.405000", "112938.408000", "112938.411000", "113018.320000", "113018.323000", "113018.326000", "113018.329000", "113018.332000", "113018.336000", "113018.339000", "113018.342000", "113018.345000", "113018.348000", "113018.351000", "113018.354000", "113018.357000", "113018.360000", "113018.363000", "113018.366000", "113018.369000", "113018.372000", "113018.375000", "113018.378000", "113018.381000", "113018.385000", "113018.388000", "113018.391000", "113018.394000", "113018.397000", "113018.401000", "113058.321000", "113058.324000", "113058.327000", "113058.331000", "113058.334000", "113058.337000", "113058.340000", "113058.343000", "113058.346000", "113058.349000", "113058.352000", "113058.356000", "113058.359000", "113058.362000", "113058.365000", "113058.368000", "113058.371000", "113058.374000", "113058.377000", "113058.380000", "113058.383000", "113058.386000", "113058.389000", "113058.392000", "113058.395000", "113058.398000", "113058.401000", "113138.320000", "113138.323000", "113138.327000", "113138.330000", "113138.333000", "113138.336000", "113138.339000", "113138.342000", "113138.345000", "113138.348000", "113138.351000", "113138.354000", "113138.357000", "113138.361000", "113138.364000", "113138.367000", "113138.370000", "113138.373000", "113138.376000", "113138.379000", "113138.382000", "113138.386000", "113138.389000", "113138.392000", "113138.395000", "113138.398000", "113218.320000", "113218.323000", "113218.326000", "113218.330000", "113218.333000", "113218.336000", "113218.339000", "113218.342000", "113218.345000", "113218.348000", "113218.351000", "113218.354000", "113218.357000", "113218.361000", "113218.363000", "113218.366000", "113218.369000", "113218.373000", "113218.376000", "113218.379000", "113218.382000", "113218.385000", "113218.388000", "113218.391000", "113218.394000", "113218.397000", "113218.400000", "113258.321000", "113258.324000", "113258.327000", "113258.330000", "113258.334000", "113258.337000", "113258.340000", "113258.343000", "113258.346000", "113258.349000", "113258.352000", "113258.355000", "113258.358000", "113258.361000", "113258.364000", "113258.367000", "113258.376000", "113258.379000", "113258.390000", "113258.393000", "113258.396000", "113258.399000", "113258.402000", "113258.405000", "113258.408000", "113258.411000", "113258.414000", "113338.320000", "113338.323000", "113338.326000", "113338.329000", "113338.332000", "113338.335000", "113338.338000", "113338.342000", "113338.345000", "113338.348000", "113338.362000", "113338.365000", "113338.368000", "113338.371000", "113338.375000", "113338.378000", "113338.381000", "113338.384000", "113338.387000", "113338.390000", "113338.393000", "113338.396000", "113338.399000", "113338.402000", "113338.405000", "113338.408000", "113338.411000", "113418.320000", "113418.323000", "113418.326000", "113418.330000", "113418.333000", "113418.336000", "113418.339000", "113418.342000", "113418.345000", "113418.348000", "113418.351000", "113418.354000", "113418.357000", "113418.360000", "113418.363000", "113418.366000", "113418.369000", "113418.372000", "113418.375000", "113418.378000", "113418.381000", "113418.384000", "113418.388000", "113418.391000", "113418.394000", "113418.397000", "113418.400000", "113458.320000", "113458.323000", "113458.327000", "113458.330000", "113458.333000", "113458.336000", "113458.339000", "113458.342000", "113458.345000", "113458.348000", "113458.351000", "113458.354000", "113458.357000", "113458.360000", "113458.363000", "113458.366000", "113458.369000", "113458.372000", "113458.375000", "113458.378000", "113458.381000", "113458.385000", "113458.388000", "113458.391000", "113458.394000", "113458.397000", "113458.400000", "113538.320000", "113538.323000", "113538.326000", "113538.329000", "113538.333000", "113538.336000", "113538.339000", "113538.342000", "113538.345000", "113538.348000", "113538.351000", "113538.354000", "113538.357000", "113538.360000", "113538.363000", "113538.366000", "113538.369000", "113538.373000", "113538.376000", "113538.380000", "113538.384000", "113538.387000", "113538.390000", "113538.393000", "113538.396000", "113538.399000", "113558.321000", "113558.324000", "113558.327000", "113558.331000", "113558.334000", "113558.337000", "113558.340000", "113558.343000", "113558.346000", "113558.349000", "113558.352000", "113558.355000", "113558.358000", "113558.361000", "113638.320000", "113638.323000", "113638.326000", "113638.336000", "113638.339000", "113638.342000", "113638.345000", "113638.348000", "113638.352000", "113638.355000", "113638.358000", "113638.361000", "113638.364000", "113638.367000", "113638.370000", "113638.373000", "113638.376000", "113638.379000", "113638.382000", "113638.385000", "113638.392000", "113638.395000", "113638.398000", "113638.401000", "113638.404000", "113638.407000", "113638.410000", "113718.320000", "113718.323000", "113718.326000", "113718.330000", "113718.333000", "113718.336000", "113718.339000", "113718.342000", "113718.345000", "113718.348000", "113718.351000", "113718.354000", "113718.357000", "113718.360000", "113718.363000", "113718.366000", "113718.369000", "113718.372000", "113718.375000", "113718.379000", "113718.382000", "113718.385000", "113718.388000", "113718.391000", "113718.394000", "113718.397000", "113718.400000", "113749.219000", "113749.223000", "113749.226000", "113749.229000", "113749.232000", "113749.245000", "113749.248000", "113749.251000", "113749.254000", "113749.257000", "113749.260000", "113749.263000", "113749.266000", "113749.269000", "113749.272000", "113749.275000", "113749.278000", "113749.281000", "113749.284000", "113749.287000"],
