{
  "AcquisitionMatrixPE": 104,
  "AcquisitionNumber": 1,
  "AcquisitionTime": "15:24:28.762500",
  "BandwidthPerPixelPhaseEncode": 17.17,
  "BaseResolution": 104,
  "BodyPartExamined": "BRAIN",
  "CoilString": "HC1-7;NC1_2",
  "ConsistencyInfo": "N4_VE11C_LATEST_20160120",
  "ConversionSoftware": "dcm2niix",
  "ConversionSoftwareVersion": "v1.0.20190902",
  "DerivedVendorReportedEchoSpacing": 0.000560011,
  "DeviceSerialNumber": "167006",
  "DwellTime": 2.1e-06,
  "EchoTime": 0.037,
  "EchoTrainLength": 104,
  "EffectiveEchoSpacing": 0.000560011,
  "FlipAngle": 52,
  "ImageComments": "Unaliased_MB4_PE3_LB",
  "ImageOrientationPatientDICOM": [0.999705, -0.0242731, 0.000366328, 0.0230356, 0.943762, -0.329821],
  "ImageType": [
    "ORIGINAL",
    "PRIMARY",
    "M",
    "MB",
    "ND",
    "MOSAIC"
],
  "ImagingFrequency": 123.259,
  "InPlanePhaseEncodingDirectionDICOM": "COL",
  "InstitutionAddress": "Chemin_Queen-Mary_4565_Montreal_District_CA_H3W_1W5",
  "InstitutionName": "IUGM",
  "InstitutionalDepartmentName": "Department",
  "MRAcquisitionType": "2D",
  "MagneticFieldStrength": 3,
  "Manufacturer": "Siemens",
  "ManufacturersModelName": "Prisma_fit",
  "Modality": "MR",
  "MultibandAccelerationFactor": 4,
  "PartialFourier": 1,
  "PatientPosition": "HFS",
  "PercentPhaseFOV": 100,
  "PhaseEncodingDirection": "j",
  "PhaseEncodingSteps": 104,
  "PhaseResolution": 1,
  "PixelBandwidth": 2290,
  "ProcedureStepDescription": "games_shinobi",
  "ProtocolName": "func_task-shinobi_run-3",
  "PulseSequenceDetails": "%CustomerSeq%_cmrr_mbep2d_bold",
  "ReceiveCoilActiveElements": "HC1-7;NC1,2",
  "ReceiveCoilName": "HeadNeck_64",
  "ReconMatrixPE": 104,
  "RepetitionTime": 1.49,
  "SAR": 0.0349749,
  "ScanOptions": "FS",
  "ScanningSequence": "EP",
  "SequenceName": "epfid2d1_104",
  "SequenceVariant": "SK_SS",
  "SeriesDescription": "func_task-shinobi_run-3",
  "SeriesNumber": 13,
  "ShimSetting": [638, -7256, -8852, 637, 38, -235, -47, -24],
  "SliceThickness": 2,
  "SliceTiming": [0, 0.785, 0.0975, 0.8825, 0.1975, 0.98, 0.295, 1.0775, 0.3925, 1.1775, 0.49, 1.275, 0.5875, 1.3725, 0.6875, 0, 0.785, 0.0975, 0.8825, 0.1975, 0.98, 0.295, 1.0775, 0.3925, 1.1775, 0.49, 1.275, 0.5875, 1.3725, 0.6875, 0, 0.785, 0.0975, 0.8825, 0.1975, 0.98, 0.295, 1.0775, 0.3925, 1.1775, 0.49, 1.275, 0.5875, 1.3725, 0.6875, 0, 0.785, 0.0975, 0.8825, 0.1975, 0.98, 0.295, 1.0775, 0.3925, 1.1775, 0.49, 1.275, 0.5875, 1.3725, 0.6875],
  "SoftwareVersions": "syngo_MR_E11",
  "SpacingBetweenSlices": 2,
  "StationName": "MRC35049",
  "TaskName": "shinobi",
  "TotalReadoutTime": 0.0576811,
  "TxRefAmp": 229.509,
  "WipMemBlock": "a06c09c3-b8e5-4db5-8c32-a75f22412e7f||Sequence: R016 ve11c/master r/e634e98; Dec 19 2017 11:00:25 by eja",
  "dcmmeta_affine": [
    [-1.999410629272461, 0.04607120901346207, -0.01532006822526455, 104.34550476074219],
    [0.04854610189795494, 1.8875248432159424, -0.6594643592834473, -67.8159408569336],
    [0.0007326554623432457, 0.6596418619155884, 1.8880869150161743, -70.09609985351562],
    [0.0, 0.0, 0.0, 1.0]
],
  "dcmmeta_reorient_transform": [
    [0.0, -1.0, 0.0, 103.0],
    [1.0, 0.0, 0.0, 0.0],
    [0.0, 0.0, 1.0, 0.0],
    [0.0, 0.0, 0.0, 1.0]
],
  "dcmmeta_shape": [104, 104, 60, 526],
  "dcmmeta_slice_dim": 2,
  "dcmmeta_version": 0.6,
  "global": {
    "const": {
      "AcquisitionMatrix": [104, 0, 0, 104],
      "AngioFlag": "N",
      "BitsAllocated": 16,
      "BitsStored": 16,
      "BodyPartExamined": "BRAIN",
      "Columns": 832,
      "EchoNumbers": 1,
      "EchoTime": 37.0,
      "EchoTrainLength": 104,
      "FlipAngle": 52.0,
      "HighBit": 15,
      "ImageOrientationPatient": [0.99970529898545, -0.0242730505789, 0.00036632772261, 0.0230356041387, 0.94376242052154, -0.3298209431696],
      "ImagePositionPatient": [-853.64621999258, -795.98738288882, 237.68997647158],
      "ImageType": [
        "ORIGINAL",
        "PRIMARY",
        "M",
        "MB",
        "ND",
        "MOSAIC"
],
      "ImagedNucleus": "1H",
      "ImagingFrequency": 123.259294,
      "InPlanePhaseEncodingDirection": "COL",
      "MRAcquisitionType": "2D",
      "MagneticFieldStrength": 3.0,
      "Manufacturer": "SIEMENS",
      "ManufacturerModelName": "Prisma_fit",
      "Modality": "MR",
      "NumberOfAverages": 1.0,
      "NumberOfPhaseEncodingSteps": 104,
      "PercentPhaseFieldOfView": 100.0,
      "PercentSampling": 100.0,
      "PerformedProcedureStepStartTime": "143708.502000",
      "PhotometricInterpretation": "MONOCHROME2",
      "PixelBandwidth": 2290.0,
      "PixelRepresentation": 0,
      "PixelSpacing": [2.0, 2.0],
      "ProtocolName": "func_task-shinobi_run-3",
      "RepetitionTime": 1490.0,
      "Rows": 832,
      "SAR": 0.03497493441711,
      "SamplesPerPixel": 1,
      "ScanOptions": "FS",
      "ScanningSequence": "EP",
      "SequenceName": "epfid2d1_104",
      "SequenceVariant": [
        "SK",
        "SS"
],
      "SeriesDescription": "func_task-shinobi_run-3",
      "SeriesNumber": 13,
      "SeriesTime": "152551.577000",
      "SliceLocation": -44.611954331173,
      "SliceThickness": 2.0,
      "SmallestImagePixelValue": 0,
      "SoftwareVersions": "syngo MR E11",
      "SpacingBetweenSlices": 2.000000058609,
      "SpecificCharacterSet": "ISO_IR 100",
      "StudyID": "1",
      "StudyTime": "143708.398000",
      "TransmitCoilName": "Body",
      "VariableFlipAngleFlag": "N",
      "WindowCenterWidthExplanation": "Algo1",
      "dBdt": 0.0},
    "slices": {}
  },
  "time": {
    "samples": {
      "AcquisitionNumber": [1, 2, 3, 4, 5, 6, 7, 8, 9, 10, 11, 12, 13, 14, 15, 16, 17, 18, 19, 20, 21, 22, 23, 24, 25, 26, 27, 28, 29, 30, 31, 32, 33, 34, 35, 36, 37, 38, 39, 40, 41, 42, 43, 44, 45, 46, 47, 48, 49, 50, 51, 52, 53, 54, 55, 56, 57, 58, 59, 60, 61, 62, 63, 64, 65, 66, 67, 68, 69, 70, 71, 72, 73, 74, 75, 76, 77, 78, 79, 80, 81, 82, 83, 84, 85, 86, 87, 88, 89, 90, 91, 92, 93, 94, 95, 96, 97, 98, 99, 100, 101, 102, 103, 104, 105, 106, 107, 108, 109, 110, 111, 112, 113, 114, 115, 116, 117, 118, 119, 120, 121, 122, 123, 124, 125, 126, 127, 128, 129, 130, 131, 132, 133, 134, 135, 136, 137, 138, 139, 140, 141, 142, 143, 144, 145, 146, 147, 148, 149, 150, 151, 152, 153, 154, 155, 156, 157, 158, 159, 160, 161, 162, 163, 164, 165, 166, 167, 168, 169, 170, 171, 172, 173, 174, 175, 176, 177, 178, 179, 180, 181, 182, 183, 184, 185, 186, 187, 188, 189, 190, 191, 192, 193, 194, 195, 196, 197, 198, 199, 200, 201, 202, 203, 204, 205, 206, 207, 208, 209, 210, 211, 212, 213, 214, 215, 216, 217, 218, 219, 220, 221, 222, 223, 224, 225, 226, 227, 228, 229, 230, 231, 232, 233, 234, 235, 236, 237, 238, 239, 240, 241, 242, 243, 244, 245, 246, 247, 248, 249, 250, 251, 252, 253, 254, 255, 256, 257, 258, 259, 260, 261, 262, 263, 264, 265, 266, 267, 268, 269, 270, 271, 272, 273, 274, 275, 276, 277, 278, 279, 280, 281, 282, 283, 284, 285, 286, 287, 288, 289, 290, 291, 292, 293, 294, 295, 296, 297, 298, 299, 300, 301, 302, 303, 304, 305, 306, 307, 308, 309, 310, 311, 312, 313, 314, 315, 316, 317, 318, 319, 320, 321, 322, 323, 324, 325, 326, 327, 328, 329, 330, 331, 332, 333, 334, 335, 336, 337, 338, 339, 340, 341, 342, 343, 344, 345, 346, 347, 348, 349, 350, 351, 352, 353, 354, 355, 356, 357, 358, 359, 360, 361, 362, 363, 364, 365, 366, 367, 368, 369, 370, 371, 372, 373, 374, 375, 376, 377, 378, 379, 380, 381, 382, 383, 384, 385, 386, 387, 388, 389, 390, 391, 392, 393, 394, 395, 396, 397, 398, 399, 400, 401, 402, 403, 404, 405, 406, 407, 408, 409, 410, 411, 412, 413, 414, 415, 416, 417, 418, 419, 420, 421, 422, 423, 424, 425, 426, 427, 428, 429, 430, 431, 432, 433, 434, 435, 436, 437, 438, 439, 440, 441, 442, 443, 444, 445, 446, 447, 448, 449, 450, 451, 452, 453, 454, 455, 456, 457, 458, 459, 460, 461, 462, 463, 464, 465, 466, 467, 468, 469, 470, 471, 472, 473, 474, 475, 476, 477, 478, 479, 480, 481, 482, 483, 484, 485, 486, 487, 488, 489, 490, 491, 492, 493, 494, 495, 496, 497, 498, 499, 500, 501, 502, 503, 504, 505, 506, 507, 508, 509, 510, 511, 512, 513, 514, 515, 516, 517, 518, 519, 520, 521, 522, 523, 524, 525, 526],
      "AcquisitionTime": ["152428.762500", "152430.252500", "152431.742500", "152433.232500", "152434.722500", "152436.212500", "152437.702500", "152439.192500", "152440.682500", "152442.172500", "152443.662500", "152445.152500", "152446.642500", "152448.132500", "152449.622500", "152451.112500", "152452.602500", "152454.092500", "152455.582500", "152457.072500", "152458.562500", "152500.052500", "152501.542500", "152503.032500", "152504.522500", "152506.012500", "152507.502500", "152508.992500", "152510.482500", "152511.972500", "152513.462500", "152514.952500", "152516.442500", "152517.932500", "152519.422500", "152520.912500", "152522.402500", "152523.892500", "152525.382500", "152526.872500", "152528.362500", "152529.852500", "152531.342500", "152532.832500", "152534.322500", "152535.812500", "152537.302500", "152538.792500", "152540.282500", "152541.772500", "152543.262500", "152544.752500", "152546.242500", "152547.732500", "152549.222500", "152550.712500", "152552.202500", "152553.692500", "152555.182500", "152556.672500", "152558.162500", "152559.652500", "152601.142500", "152602.632500", "152604.122500", "152605.612500", "152607.102500", "152608.592500", "152610.082500", "152611.572500", "152613.062500", "152614.552500", "152616.042500", "152617.532500", "152619.022500", "152620.512500", "152622.002500", "152623.492500", "152624.982500", "152626.472500", "152627.962500", "152629.452500", "152630.942500", "152632.432500", "152633.922500", "152635.412500", "152636.902500", "152638.392500", "152639.882500", "152641.372500", "152642.862500", "152644.352500", "152645.842500", "152647.332500", "152648.822500", "152650.312500", "152651.802500", "152653.292500", "152654.782500", "152656.272500", "152657.762500", "152659.252500", "152700.742500", "152702.232500", "152703.722500", "152705.212500", "152706.702500", "152708.192500", "152709.682500", "152711.172500", "152712.662500", "152714.152500", "152715.642500", "152717.132500", "152718.622500", "152720.112500", "152721.602500", "152723.092500", "152724.582500", "152726.072500", "152727.562500", "152729.052500", "152730.542500", "152732.032500", "152733.522500", "152735.012500", "152736.502500", "152737.992500", "152739.482500", "152740.972500", "152742.462500", "152743.952500", "152745.442500", "152746.932500", "152748.422500", "152749.912500", "152751.402500", "152752.892500", "152754.382500", "152755.872500", "152757.362500", "152758.852500", "152800.342500", "152801.832500", "152803.322500", "152804.812500", "152806.302500", "152807.792500", "152809.282500", "152810.772500", "152812.262500", "152813.752500", "152815.242500", "152816.732500", "152818.222500", "152819.712500", "152821.202500", "152822.692500", "152824.182500", "152825.672500", "152827.162500", "152828.652500", "152830.142500", "152831.632500", "152833.122500", "152834.612500", "152836.102500", "152837.592500", "152839.082500", "152840.572500", "152842.062500", "152843.552500", "152845.042500", "152846.532500", "152848.022500", "152849.512500", "152851.002500", "152852.492500", "152853.982500", "152855.472500", "152856.962500", "152858.452500", "152859.942500", "152901.432500", "152902.922500", "152904.412500", "152905.902500", "152907.392500", "152908.882500", "152910.372500", "152911.862500", "152913.352500", "152914.842500", "152916.332500", "152917.822500", "152919.312500", "152920.802500", "152922.292500", "152923.782500", "152925.272500", "152926.762500", "152928.252500", "152929.742500", "152931.232500", "152932.722500", "152934.212500", "152935.702500", "152937.192500", "152938.682500", "152940.172500", "152941.662500", "152943.152500", "152944.642500", "152946.132500", "152947.622500", "152949.112500", "152950.602500", "152952.092500", "152953.582500", "152955.072500", "152956.562500", "152958.052500", "152959.542500", "153001.032500", "153002.522500", "153004.012500", "153005.502500", "153006.992500", "153008.482500", "153009.972500", "153011.462500", "153012.952500", "153014.442500", "153015.932500", "153017.422500", "153018.912500", "153020.402500", "153021.892500", "153023.382500", "153024.872500", "153026.362500", "153027.852500", "153029.342500", "153030.832500", "153032.322500", "153033.812500", "153035.302500", "153036.792500", "153038.282500", "153039.772500", "153041.262500", "153042.752500", "153044.242500", "153045.732500", "153047.222500", "153048.712500", "153050.202500", "153051.692500", "153053.182500", "153054.672500", "153056.162500", "153057.652500", "153059.142500", "153100.632500", "153102.122500", "153103.612500", "153105.102500", "153106.592500", "153108.082500", "153109.572500", "153111.062500", "153112.552500", "153114.042500", "153115.532500", "153117.022500", "153118.512500", "153120.002500", "153121.492500", "153122.982500", "153124.472500", "153125.962500", "153127.452500", "153128.942500", "153130.432500", "153131.922500", "153133.412500", "153134.902500", "153136.392500", "153137.882500", "153139.372500", "153140.862500", "153142.352500", "153143.842500", "153145.332500", "153146.822500", "153148.312500", "153149.802500", "153151.292500", "153152.782500", "153154.272500", "153155.762500", "153157.252500", "153158.742500", "153200.232500", "153201.722500", "153203.212500", "153204.702500", "153206.192500", "153207.682500", "153209.172500", "153210.662500", "153212.152500", "153213.642500", "153215.132500", "153216.622500", "153218.112500", "153219.602500", "153221.092500", "153222.582500", "153224.072500", "153225.562500", "153227.052500", "153228.542500", "153230.032500", "153231.522500", "153233.012500", "153234.502500", "153235.992500", "153237.482500", "153238.972500", "153240.462500", "153241.952500", "153243.442500", "153244.932500", "153246.422500", "153247.912500", "153249.402500", "153250.892500", "153252.382500", "153253.872500", "153255.362500", "153256.852500", "153258.342500", "153259.832500", "153301.322500", "153302.812500", "153304.302500", "153305.792500", "153307.282500", "153308.772500", "153310.262500", "153311.752500", "153313.242500", "153314.732500", "153316.222500", "153317.712500", "153319.202500", "153320.692500", "153322.182500", "153323.672500", "153325.162500", "153326.652500", "153328.142500", "153329.632500", "153331.122500", "153332.612500", "153334.102500", "153335.592500", "153337.082500", "153338.572500", "153340.062500", "153341.552500", "153343.042500", "153344.532500", "153346.022500", "153347.512500", "153349.002500", "153350.492500", "153351.982500", "153353.472500", "153354.962500", "153356.452500", "153357.942500", "153359.432500", "153400.922500", "153402.412500", "153403.902500", "153405.392500", "153406.882500", "153408.372500", "153409.862500", "153411.352500", "153412.842500", "153414.332500", "153415.822500", "153417.312500", "153418.802500", "153420.292500", "153421.782500", "153423.272500", "153424.762500", "153426.252500", "153427.742500", "153429.232500", "153430.722500", "153432.212500", "153433.702500", "153435.192500", "153436.682500", "153438.172500", "153439.662500", "153441.152500", "153442.642500", "153444.132500", "153445.622500", "153447.112500", "153448.602500", "153450.092500", "153451.582500", "153453.072500", "153454.562500", "153456.052500", "153457.542500", "153459.032500", "153500.522500", "153502.012500", "153503.502500", "153504.992500", "153506.482500", "153507.972500", "153509.462500", "153510.952500", "153512.442500", "153513.932500", "153515.422500", "153516.912500", "153518.402500", "153519.892500", "153521.382500", "153522.872500", "153524.362500", "153525.852500", "153527.342500", "153528.832500", "153530.322500", "153531.812500", "153533.302500", "153534.792500", "153536.282500", "153537.772500", "153539.262500", "153540.752500", "153542.242500", "153543.732500", "153545.222500", "153546.712500", "153548.202500", "153549.692500", "153551.182500", "153552.672500", "153554.162500", "153555.652500", "153557.142500", "153558.632500", "153600.122500", "153601.612500", "153603.102500", "153604.592500", "153606.082500", "153607.572500", "153609.062500", "153610.552500", "153612.042500", "153613.532500", "153615.022500", "153616.512500", "153618.002500", "153619.492500", "153620.982500", "153622.472500", "153623.962500", "153625.452500", "153626.942500", "153628.432500", "153629.922500", "153631.412500", "153632.902500", "153634.392500", "153635.882500", "153637.372500", "153638.862500", "153640.352500", "153641.842500", "153643.332500", "153644.822500", "153646.312500", "153647.802500", "153649.292500", "153650.782500", "153652.272500", "153653.762500", "153655.252500", "153656.742500", "153658.232500", "153659.722500", "153701.212500", "153702.702500", "153704.192500", "153705.682500", "153707.172500", "153708.662500", "153710.152500", "153711.642500", "153713.132500", "153714.622500", "153716.112500", "153717.602500", "153719.092500", "153720.582500", "153722.072500", "153723.562500", "153725.052500", "153726.542500", "153728.032500", "153729.522500", "153731.012500"],
      "ContentTime": ["152551.580000", "152551.596000", "152551.605000", "152551.608000", "152551.611000", "152551.614000", "152551.617000", "152551.620000", "152551.622000", "152551.625000", "152551.628000", "152551.631000", "152551.634000", "152551.637000", "152551.640000", "152551.643000", "152551.645000", "152551.648000", "152551.651000", "152551.654000", "152551.657000", "152551.660000", "152551.663000", "152551.665000", "152551.668000", "152551.671000", "152551.676000", "152551.679000", "152551.681000", "152611.538000", "152611.541000", "152611.544000", "152611.547000", "152611.550000", "152611.552000", "152611.555000", "152611.558000", "152611.561000", "152611.564000", "152611.567000", "152611.570000", "152611.573000", "152611.575000", "152611.578000", "152611.581000", "152611.584000", "152611.587000", "152611.590000", "152611.592000", "152631.538000", "152631.541000", "152631.544000", "152631.546000", "152631.549000", "152631.552000", "152631.555000", "152631.558000", "152631.561000", "152631.564000", "152631.567000", "152631.569000", "152631.572000", "152631.575000", "152631.578000", "152631.581000", "152631.584000", "152631.587000", "152631.589000", "152631.592000", "152651.538000", "152651.541000", "152651.544000", "152651.546000", "152651.550000", "152651.552000", "152651.555000", "152651.558000", "152651.561000", "152651.565000", "152651.569000", "152651.572000", "152651.575000", "152651.578000", "152651.581000", "152651.584000", "152651.587000", "152651.590000", "152651.593000", "152651.596000", "152731.538000", "152731.541000", "152731.544000", "152731.547000", "152731.550000", "152731.552000", "152731.555000", "152731.558000", "152731.561000", "152731.564000", "152731.567000", "152731.570000", "152731.573000", "152731.576000", "152731.579000", "152731.581000", "152731.584000", "152731.587000", "152731.590000", "152731.593000", "152731.596000", "152731.599000", "152731.602000", "152731.604000", "152731.607000", "152731.610000", "152731.613000", "152731.616000", "152731.619000", "152731.621000", "152731.625000", "152731.627000", "152731.630000", "152811.538000", "152811.541000", "152811.544000", "152811.547000", "152811.550000", "152811.553000", "152811.555000", "152811.558000", "152811.561000", "152811.564000", "152811.567000", "152811.570000", "152811.573000", "152811.576000", "152811.578000", "152811.581000", "152811.584000", "152811.587000", "152811.590000", "152811.593000", "152811.595000", "152811.598000", "152811.601000", "152811.604000", "152811.607000", "152811.610000", "152811.613000", "152851.538000", "152851.541000", "152851.544000", "152851.547000", "152851.549000", "152851.552000", "152851.555000", "152851.558000", "152851.561000", "152851.565000", "152851.568000", "152851.571000", "152851.574000", "152851.576000", "152851.579000", "152851.582000", "152851.585000", "152851.588000", "152851.591000", "152851.594000", "152851.596000", "152851.599000", "152851.602000", "152851.605000", "152851.608000", "152851.611000", "152851.614000", "152931.539000", "152931.542000", "152931.544000", "152931.547000", "152931.550000", "152931.553000", "152931.556000", "152931.559000", "152931.562000", "152931.565000", "152931.568000", "152931.571000", "152931.574000", "152931.577000", "152931.580000", "152931.582000", "152931.585000", "152931.588000", "152931.591000", "152931.594000", "152931.597000", "152931.600000", "152931.602000", "152931.605000", "152931.621000", "152931.626000", "153011.538000", "153011.541000", "153011.544000", "153011.547000", "153011.550000", "153011.552000", "153011.555000", "153011.558000", "153011.561000", "153011.564000", "153011.567000", "153011.570000", "153011.573000", "153011.575000", "153011.578000", "153011.581000", "153011.584000", "153011.587000", "153011.590000", "153011.593000", "153011.595000", "153011.598000", "153011.601000", "153011.604000", "153011.607000", "153011.610000", "153011.613000", "153031.538000", "153031.541000", "153031.544000", "153031.547000", "153031.550000", "153031.552000", "153031.555000", "153031.558000", "153031.561000", "153031.564000", "153031.567000", "153031.570000", "153031.573000", "153031.576000", "153111.538000", "153111.541000", "153111.544000", "153111.546000", "153111.550000", "153111.552000", "153111.555000", "153111.558000", "153111.561000", "153111.564000", "153111.567000", "153111.570000", "153111.573000", "153111.576000", "153111.579000", "153111.581000", "153111.584000", "153111.587000", "153111.594000", "153111.597000", "153111.600000", "153111.603000", "153111.606000", "153111.608000", "153111.612000", "153111.614000", "153111.617000", "153151.538000", "153151.541000", "153151.544000", "153151.547000", "153151.549000", "153151.552000", "153151.555000", "153151.558000", "153151.562000", "153151.565000", "153151.568000", "153151.571000", "153151.574000", "153151.577000", "153151.580000", "153151.583000", "153151.586000", "153151.589000", "153151.591000", "153151.594000", "153151.597000", "153151.600000", "153151.603000", "153151.606000", "153151.610000", "153151.613000", "153231.538000", "153231.541000", "153231.544000", "153231.547000", "153231.550000", "153231.553000", "153231.555000", "153231.558000", "153231.561000", "153231.564000", "153231.567000", "153231.570000", "153231.573000", "153231.576000", "153231.579000", "153231.582000", "153231.585000", "153231.588000", "153231.590000", "153231.593000", "153231.596000", "153231.599000", "153231.602000", "153231.605000", "153231.608000", "153231.611000", "153231.613000", "153311.538000", "153311.541000", "153311.544000", "153311.546000", "153311.549000", "153311.552000", "153311.555000", "153311.558000", "153311.561000", "153311.564000", "153311.567000", "153311.570000", "153311.573000", "153311.575000", "153311.578000", "153311.581000", "153311.584000", "153311.587000", "153311.590000", "153311.593000", "153311.596000", "153311.599000", "153311.601000", "153311.604000", "153311.607000", "153311.610000", "153311.613000", "153351.538000", "153351.541000", "153351.544000", "153351.547000", "153351.550000", "153351.553000", "153351.555000", "153351.558000", "153351.561000", "153351.564000", "153351.567000", "153351.570000", "153351.573000", "153351.576000", "153351.578000", "153351.581000", "153351.584000", "153351.587000", "153351.590000", "153351.593000", "153351.596000", "153351.599000", "153351.601000", "153351.604000", "153351.607000", "153351.610000", "153351.613000", "153431.538000", "153431.541000", "153431.544000", "153431.547000", "153431.550000", "153431.553000", "153431.556000", "153431.558000", "153431.561000", "153431.564000", "153431.567000", "153431.584000", "153431.587000", "153431.590000", "153431.593000", "153431.596000", "153431.598000", "153431.601000", "153431.604000", "153431.607000", "153431.610000", "153431.613000", "153431.616000", "153431.619000", "153431.621000", "153431.624000", "153431.627000", "153511.538000", "153511.541000", "153511.544000", "153511.547000", "153511.550000", "153511.553000", "153511.555000", "153511.558000", "153511.561000", "153511.564000", "153511.567000", "153511.570000", "153511.573000", "153511.576000", "153511.579000", "153511.582000", "153511.584000", "153511.587000", "153511.590000", "153511.593000", "153511.596000", "153511.599000", "153511.602000", "153511.604000", "153511.607000", "153511.610000", "153511.613000", "153551.538000", "153551.541000", "153551.544000", "153551.547000", "153551.550000", "153551.553000", "153551.556000", "153551.558000", "153551.561000", "153551.564000", "153551.568000", "153551.572000", "153551.575000", "153551.578000", "153551.581000", "153551.584000", "153551.587000", "153551.590000", "153551.593000", "153551.596000", "153551.599000", "153551.602000", "153551.605000", "153551.608000", "153551.611000", "153551.614000", "153631.538000", "153631.541000", "153631.544000", "153631.547000", "153631.550000", "153631.553000", "153631.556000", "153631.558000", "153631.561000", "153631.564000", "153631.567000", "153631.570000", "153631.573000", "153631.576000", "153631.579000", "153631.581000", "153631.584000", "153631.587000", "153631.590000", "153631.593000", "153631.596000", "153631.599000", "153631.602000", "153631.604000", "153631.607000", "153631.610000", "153631.613000", "153711.538000", "153711.541000", "153711.544000", "153711.547000", "153711.550000", "153711.553000", "153711.555000", "153711.558000", "153711.561000", "153711.564000", "153711.567000", "153711.570000", "153711.573000", "153711.576000", "153711.579000", "153711.582000", "153711.584000", "153711.587000", "153711.590000", "153711.593000", "153711.596000", "153711.599000", "153711.602000", "153711.604000", "153711.607000", "153711.610000", "153711.613000", "153734.308000", "153734.311000", "153734.314000", "153734.317000", "153734.320000", "153734.323000", "153734.325000", "153734.328000", "153734.331000", "153734.334000", "153734.337000", "153734.340000", "153734.343000", "153734.346000", "153734.348000"],
