{
  "AcquisitionMatrixPE": 104,
  "AcquisitionNumber": 1,
  "AcquisitionTime": "14:57:32.340000",
  "BandwidthPerPixelPhaseEncode": 17.17,
  "BaseResolution": 104,
  "BodyPartExamined": "BRAIN",
  "CoilString": "HC1-7;NC1_2",
  "ConsistencyInfo": "N4_VE11C_LATEST_20160120",
  "ConversionSoftware": "dcm2niix",
  "ConversionSoftwareVersion": "v1.0.20190902",
  "DerivedVendorReportedEchoSpacing": 0.000560011,
  "DeviceSerialNumber": "167006",
  "DwellTime": 2.1e-06,
  "EchoTime": 0.037,
  "EchoTrainLength": 104,
  "EffectiveEchoSpacing": 0.000560011,
  "FlipAngle": 52,
  "ImageComments": "Unaliased_MB4_PE3_LB",
  "ImageOrientationPatientDICOM": [0.999705, -0.0242731, 0.000366328, 0.0230356, 0.943762, -0.329821],
  "ImageType": [
    "ORIGINAL",
    "PRIMARY",
    "M",
    "MB",
    "ND",
    "MOSAIC"
],
  "ImagingFrequency": 123.259,
  "InPlanePhaseEncodingDirectionDICOM": "COL",
  "InstitutionAddress": "Chemin_Queen-Mary_4565_Montreal_District_CA_H3W_1W5",
  "InstitutionName": "IUGM",
  "InstitutionalDepartmentName": "Department",
  "MRAcquisitionType": "2D",
  "MagneticFieldStrength": 3,
  "Manufacturer": "Siemens",
  "ManufacturersModelName": "Prisma_fit",
  "Modality": "MR",
  "MultibandAccelerationFactor": 4,
  "PartialFourier": 1,
  "PatientPosition": "HFS",
  "PercentPhaseFOV": 100,
  "PhaseEncodingDirection": "j",
  "PhaseEncodingSteps": 104,
  "PhaseResolution": 1,
  "PixelBandwidth": 2290,
  "ProcedureStepDescription": "games_shinobi",
  "ProtocolName": "func_task-shinobi_run-1",
  "PulseSequenceDetails": "%CustomerSeq%_cmrr_mbep2d_bold",
  "ReceiveCoilActiveElements": "HC1-7;NC1,2",
  "ReceiveCoilName": "HeadNeck_64",
  "ReconMatrixPE": 104,
  "RepetitionTime": 1.49,
  "SAR": 0.0349749,
  "ScanOptions": "FS",
  "ScanningSequence": "EP",
  "SequenceName": "epfid2d1_104",
  "SequenceVariant": "SK_SS",
  "SeriesDescription": "func_task-shinobi_run-1",
  "SeriesNumber": 9,
  "ShimSetting": [638, -7256, -8852, 637, 38, -235, -47, -24],
  "SliceThickness": 2,
  "SliceTiming": [0, 0.785, 0.1, 0.8825, 0.1975, 0.98, 0.295, 1.08, 0.3925, 1.1775, 0.49, 1.275, 0.59, 1.3725, 0.6875, 0, 0.785, 0.1, 0.8825, 0.1975, 0.98, 0.295, 1.08, 0.3925, 1.1775, 0.49, 1.275, 0.59, 1.3725, 0.6875, 0, 0.785, 0.1, 0.8825, 0.1975, 0.98, 0.295, 1.08, 0.3925, 1.1775, 0.49, 1.275, 0.59, 1.3725, 0.6875, 0, 0.785, 0.1, 0.8825, 0.1975, 0.98, 0.295, 1.08, 0.3925, 1.1775, 0.49, 1.275, 0.59, 1.3725, 0.6875],
  "SoftwareVersions": "syngo_MR_E11",
  "SpacingBetweenSlices": 2,
  "StationName": "MRC35049",
  "TaskName": "shinobi",
  "TotalReadoutTime": 0.0576811,
  "TxRefAmp": 229.509,
  "WipMemBlock": "12963a72-e223-41a1-af5d-08c60825d0f9||Sequence: R016 ve11c/master r/e634e98; Dec 19 2017 11:00:25 by eja",
  "dcmmeta_affine": [
    [-1.999410629272461, 0.04607120901346207, -0.01532006822526455, 104.34550476074219],
    [0.04854610189795494, 1.8875248432159424, -0.6594643592834473, -67.8159408569336],
    [0.0007326554623432457, 0.6596418619155884, 1.8880869150161743, -70.09609985351562],
    [0.0, 0.0, 0.0, 1.0]
],
  "dcmmeta_reorient_transform": [
    [0.0, -1.0, 0.0, 103.0],
    [1.0, 0.0, 0.0, 0.0],
    [0.0, 0.0, 1.0, 0.0],
    [0.0, 0.0, 0.0, 1.0]
],
  "dcmmeta_shape": [104, 104, 60, 522],
  "dcmmeta_slice_dim": 2,
  "dcmmeta_version": 0.6,
  "global": {
    "const": {
      "AcquisitionMatrix": [104, 0, 0, 104],
      "AngioFlag": "N",
      "BitsAllocated": 16,
      "BitsStored": 16,
      "BodyPartExamined": "BRAIN",
      "Columns": 832,
      "EchoNumbers": 1,
      "EchoTime": 37.0,
      "EchoTrainLength": 104,
      "FlipAngle": 52.0,
      "HighBit": 15,
      "ImageOrientationPatient": [0.99970529898545, -0.0242730505789, 0.00036632772261, 0.0230356041387, 0.94376242052154, -0.3298209431696],
      "ImagePositionPatient": [-853.64621999258, -795.98738288882, 237.68997647158],
      "ImageType": [
        "ORIGINAL",
        "PRIMARY",
        "M",
        "MB",
        "ND",
        "MOSAIC"
],
      "ImagedNucleus": "1H",
      "ImagingFrequency": 123.259278,
      "InPlanePhaseEncodingDirection": "COL",
      "MRAcquisitionType": "2D",
      "MagneticFieldStrength": 3.0,
      "Manufacturer": "SIEMENS",
      "ManufacturerModelName": "Prisma_fit",
      "Modality": "MR",
      "NumberOfAverages": 1.0,
      "NumberOfPhaseEncodingSteps": 104,
      "PercentPhaseFieldOfView": 100.0,
      "PercentSampling": 100.0,
      "PerformedProcedureStepStartTime": "143708.502000",
      "PhotometricInterpretation": "MONOCHROME2",
      "PixelBandwidth": 2290.0,
      "PixelRepresentation": 0,
      "PixelSpacing": [2.0, 2.0],
      "ProtocolName": "func_task-shinobi_run-1",
      "RepetitionTime": 1490.0,
      "Rows": 832,
      "SAR": 0.03497493441711,
      "SamplesPerPixel": 1,
      "ScanOptions": "FS",
      "ScanningSequence": "EP",
      "SequenceName": "epfid2d1_104",
      "SequenceVariant": [
        "SK",
        "SS"
],
      "SeriesDescription": "func_task-shinobi_run-1",
      "SeriesNumber": 9,
      "SeriesTime": "145848.061000",
      "SliceLocation": -44.611954331173,
      "SliceThickness": 2.0,
      "SmallestImagePixelValue": 0,
      "SoftwareVersions": "syngo MR E11",
      "SpacingBetweenSlices": 2.000000058609,
      "SpecificCharacterSet": "ISO_IR 100",
      "StudyID": "1",
      "StudyTime": "143708.398000",
      "TransmitCoilName": "Body",
      "VariableFlipAngleFlag": "N",
      "WindowCenterWidthExplanation": "Algo1",
      "dBdt": 0.0},
    "slices": {}
  },
  "time": {
    "samples": {
      "AcquisitionNumber": [1, 2, 3, 4, 5, 6, 7, 8, 9, 10, 11, 12, 13, 14, 15, 16, 17, 18, 19, 20, 21, 22, 23, 24, 25, 26, 27, 28, 29, 30, 31, 32, 33, 34, 35, 36, 37, 38, 39, 40, 41, 42, 43, 44, 45, 46, 47, 48, 49, 50, 51, 52, 53, 54, 55, 56, 57, 58, 59, 60, 61, 62, 63, 64, 65, 66, 67, 68, 69, 70, 71, 72, 73, 74, 75, 76, 77, 78, 79, 80, 81, 82, 83, 84, 85, 86, 87, 88, 89, 90, 91, 92, 93, 94, 95, 96, 97, 98, 99, 100, 101, 102, 103, 104, 105, 106, 107, 108, 109, 110, 111, 112, 113, 114, 115, 116, 117, 118, 119, 120, 121, 122, 123, 124, 125, 126, 127, 128, 129, 130, 131, 132, 133, 134, 135, 136, 137, 138, 139, 140, 141, 142, 143, 144, 145, 146, 147, 148, 149, 150, 151, 152, 153, 154, 155, 156, 157, 158, 159, 160, 161, 162, 163, 164, 165, 166, 167, 168, 169, 170, 171, 172, 173, 174, 175, 176, 177, 178, 179, 180, 181, 182, 183, 184, 185, 186, 187, 188, 189, 190, 191, 192, 193, 194, 195, 196, 197, 198, 199, 200, 201, 202, 203, 204, 205, 206, 207, 208, 209, 210, 211, 212, 213, 214, 215, 216, 217, 218, 219, 220, 221, 222, 223, 224, 225, 226, 227, 228, 229, 230, 231, 232, 233, 234, 235, 236, 237, 238, 239, 240, 241, 242, 243, 244, 245, 246, 247, 248, 249, 250, 251, 252, 253, 254, 255, 256, 257, 258, 259, 260, 261, 262, 263, 264, 265, 266, 267, 268, 269, 270, 271, 272, 273, 274, 275, 276, 277, 278, 279, 280, 281, 282, 283, 284, 285, 286, 287, 288, 289, 290, 291, 292, 293, 294, 295, 296, 297, 298, 299, 300, 301, 302, 303, 304, 305, 306, 307, 308, 309, 310, 311, 312, 313, 314, 315, 316, 317, 318, 319, 320, 321, 322, 323, 324, 325, 326, 327, 328, 329, 330, 331, 332, 333, 334, 335, 336, 337, 338, 339, 340, 341, 342, 343, 344, 345, 346, 347, 348, 349, 350, 351, 352, 353, 354, 355, 356, 357, 358, 359, 360, 361, 362, 363, 364, 365, 366, 367, 368, 369, 370, 371, 372, 373, 374, 375, 376, 377, 378, 379, 380, 381, 382, 383, 384, 385, 386, 387, 388, 389, 390, 391, 392, 393, 394, 395, 396, 397, 398, 399, 400, 401, 402, 403, 404, 405, 406, 407, 408, 409, 410, 411, 412, 413, 414, 415, 416, 417, 418, 419, 420, 421, 422, 423, 424, 425, 426, 427, 428, 429, 430, 431, 432, 433, 434, 435, 436, 437, 438, 439, 440, 441, 442, 443, 444, 445, 446, 447, 448, 449, 450, 451, 452, 453, 454, 455, 456, 457, 458, 459, 460, 461, 462, 463, 464, 465, 466, 467, 468, 469, 470, 471, 472, 473, 474, 475, 476, 477, 478, 479, 480, 481, 482, 483, 484, 485, 486, 487, 488, 489, 490, 491, 492, 493, 494, 495, 496, 497, 498, 499, 500, 501, 502, 503, 504, 505, 506, 507, 508, 509, 510, 511, 512, 513, 514, 515, 516, 517, 518, 519, 520, 521, 522],
      "AcquisitionTime": ["145732.340000", "145733.830000", "145735.320000", "145736.810000", "145738.300000", "145739.790000", "145741.280000", "145742.770000", "145744.260000", "145745.750000", "145747.240000", "145748.730000", "145750.220000", "145751.710000", "145753.200000", "145754.690000", "145756.180000", "145757.670000", "145759.160000", "145800.650000", "145802.140000", "145803.630000", "145805.120000", "145806.610000", "145808.100000", "145809.590000", "145811.080000", "145812.570000", "145814.060000", "145815.550000", "145817.040000", "145818.530000", "145820.020000", "145821.510000", "145823.000000", "145824.490000", "145825.980000", "145827.470000", "145828.960000", "145830.450000", "145831.940000", "145833.430000", "145834.920000", "145836.410000", "145837.900000", "145839.390000", "145840.880000", "145842.370000", "145843.860000", "145845.350000", "145846.840000", "145848.330000", "145849.820000", "145851.310000", "145852.800000", "145854.290000", "145855.780000", "145857.270000", "145858.760000", "145900.250000", "145901.740000", "145903.230000", "145904.720000", "145906.210000", "145907.700000", "145909.190000", "145910.680000", "145912.170000", "145913.660000", "145915.150000", "145916.640000", "145918.130000", "145919.620000", "145921.110000", "145922.600000", "145924.090000", "145925.580000", "145927.070000", "145928.560000", "145930.050000", "145931.540000", "145933.030000", "145934.520000", "145936.010000", "145937.500000", "145938.990000", "145940.480000", "145941.970000", "145943.460000", "145944.950000", "145946.440000", "145947.930000", "145949.420000", "145950.910000", "145952.400000", "145953.890000", "145955.380000", "145956.870000", "145958.360000", "145959.850000", "150001.340000", "150002.830000", "150004.320000", "150005.810000", "150007.300000", "150008.790000", "150010.280000", "150011.770000", "150013.260000", "150014.750000", "150016.240000", "150017.730000", "150019.220000", "150020.710000", "150022.200000", "150023.690000", "150025.180000", "150026.670000", "150028.160000", "150029.650000", "150031.140000", "150032.630000", "150034.120000", "150035.610000", "150037.100000", "150038.590000", "150040.080000", "150041.570000", "150043.060000", "150044.550000", "150046.040000", "150047.530000", "150049.020000", "150050.510000", "150052.000000", "150053.490000", "150054.980000", "150056.470000", "150057.960000", "150059.450000", "150100.940000", "150102.430000", "150103.920000", "150105.410000", "150106.900000", "150108.390000", "150109.880000", "150111.370000", "150112.860000", "150114.350000", "150115.840000", "150117.330000", "150118.820000", "150120.310000", "150121.800000", "150123.290000", "150124.780000", "150126.270000", "150127.760000", "150129.250000", "150130.740000", "150132.230000", "150133.720000", "150135.210000", "150136.700000", "150138.190000", "150139.680000", "150141.170000", "150142.660000", "150144.150000", "150145.640000", "150147.130000", "150148.620000", "150150.110000", "150151.600000", "150153.090000", "150154.580000", "150156.070000", "150157.560000", "150159.050000", "150200.540000", "150202.030000", "150203.520000", "150205.010000", "150206.500000", "150207.990000", "150209.480000", "150210.970000", "150212.460000", "150213.950000", "150215.440000", "150216.930000", "150218.420000", "150219.910000", "150221.400000", "150222.890000", "150224.380000", "150225.870000", "150227.360000", "150228.850000", "150230.340000", "150231.830000", "150233.320000", "150234.810000", "150236.300000", "150237.790000", "150239.280000", "150240.770000", "150242.260000", "150243.750000", "150245.240000", "150246.730000", "150248.220000", "150249.710000", "150251.200000", "150252.690000", "150254.180000", "150255.670000", "150257.160000", "150258.650000", "150300.140000", "150301.630000", "150303.120000", "150304.610000", "150306.100000", "150307.590000", "150309.080000", "150310.570000", "150312.060000", "150313.550000", "150315.040000", "150316.530000", "150318.020000", "150319.510000", "150321.000000", "150322.490000", "150323.980000", "150325.470000", "150326.960000", "150328.450000", "150329.940000", "150331.430000", "150332.920000", "150334.410000", "150335.900000", "150337.390000", "150338.880000", "150340.370000", "150341.860000", "150343.350000", "150344.840000", "150346.330000", "150347.820000", "150349.310000", "150350.800000", "150352.290000", "150353.780000", "150355.270000", "150356.760000", "150358.250000", "150359.740000", "150401.230000", "150402.720000", "150404.210000", "150405.700000", "150407.190000", "150408.680000", "150410.170000", "150411.660000", "150413.150000", "150414.640000", "150416.130000", "150417.620000", "150419.110000", "150420.600000", "150422.090000", "150423.580000", "150425.070000", "150426.560000", "150428.050000", "150429.540000", "150431.030000", "150432.520000", "150434.010000", "150435.500000", "150436.990000", "150438.480000", "150439.970000", "150441.460000", "150442.950000", "150444.440000", "150445.930000", "150447.420000", "150448.910000", "150450.400000", "150451.890000", "150453.380000", "150454.870000", "150456.360000", "150457.850000", "150459.340000", "150500.830000", "150502.320000", "150503.810000", "150505.300000", "150506.790000", "150508.280000", "150509.770000", "150511.260000", "150512.750000", "150514.240000", "150515.730000", "150517.220000", "150518.710000", "150520.200000", "150521.690000", "150523.180000", "150524.670000", "150526.160000", "150527.650000", "150529.140000", "150530.630000", "150532.120000", "150533.610000", "150535.100000", "150536.590000", "150538.080000", "150539.570000", "150541.060000", "150542.550000", "150544.040000", "150545.530000", "150547.020000", "150548.510000", "150550.000000", "150551.490000", "150552.980000", "150554.470000", "150555.960000", "150557.450000", "150558.940000", "150600.430000", "150601.920000", "150603.410000", "150604.900000", "150606.390000", "150607.880000", "150609.370000", "150610.860000", "150612.350000", "150613.840000", "150615.330000", "150616.820000", "150618.310000", "150619.800000", "150621.290000", "150622.780000", "150624.270000", "150625.760000", "150627.250000", "150628.740000", "150630.230000", "150631.720000", "150633.210000", "150634.700000", "150636.190000", "150637.680000", "150639.170000", "150640.660000", "150642.150000", "150643.640000", "150645.130000", "150646.620000", "150648.110000", "150649.600000", "150651.090000", "150652.580000", "150654.070000", "150655.560000", "150657.050000", "150658.540000", "150700.030000", "150701.520000", "150703.010000", "150704.500000", "150705.990000", "150707.480000", "150708.970000", "150710.460000", "150711.950000", "150713.440000", "150714.930000", "150716.420000", "150717.910000", "150719.400000", "150720.890000", "150722.380000", "150723.870000", "150725.360000", "150726.850000", "150728.340000", "150729.830000", "150731.320000", "150732.810000", "150734.300000", "150735.790000", "150737.280000", "150738.770000", "150740.260000", "150741.750000", "150743.240000", "150744.730000", "150746.220000", "150747.710000", "150749.200000", "150750.690000", "150752.180000", "150753.670000", "150755.160000", "150756.650000", "150758.140000", "150759.630000", "150801.120000", "150802.610000", "150804.100000", "150805.590000", "150807.080000", "150808.570000", "150810.060000", "150811.550000", "150813.040000", "150814.530000", "150816.020000", "150817.510000", "150819.000000", "150820.490000", "150821.980000", "150823.470000", "150824.960000", "150826.450000", "150827.940000", "150829.430000", "150830.920000", "150832.410000", "150833.900000", "150835.390000", "150836.880000", "150838.370000", "150839.860000", "150841.350000", "150842.840000", "150844.330000", "150845.820000", "150847.310000", "150848.800000", "150850.290000", "150851.780000", "150853.270000", "150854.760000", "150856.250000", "150857.740000", "150859.230000", "150900.720000", "150902.210000", "150903.700000", "150905.190000", "150906.680000", "150908.170000", "150909.660000", "150911.150000", "150912.640000", "150914.130000", "150915.620000", "150917.110000", "150918.600000", "150920.090000", "150921.580000", "150923.070000", "150924.560000", "150926.050000", "150927.540000", "150929.030000", "150930.520000", "150932.010000", "150933.500000", "150934.990000", "150936.480000", "150937.970000", "150939.460000", "150940.950000", "150942.440000", "150943.930000", "150945.420000", "150946.910000", "150948.400000", "150949.890000", "150951.380000", "150952.870000", "150954.360000", "150955.850000", "150957.340000", "150958.830000", "151000.320000", "151001.810000", "151003.300000", "151004.790000", "151006.280000", "151007.770000", "151009.260000", "151010.750000", "151012.240000", "151013.730000", "151015.220000", "151016.710000", "151018.200000", "151019.690000", "151021.180000", "151022.670000", "151024.160000", "151025.650000", "151027.140000", "151028.630000"],
      "ContentTime": ["145848.064000", "145848.071000", "145848.075000", "145848.077000", "145848.080000", "145848.083000", "145848.086000", "145848.089000", "145848.091000", "145848.094000", "145848.097000", "145848.103000", "145848.106000", "145848.109000", "145848.112000", "145848.115000", "145848.118000", "145848.120000", "145848.124000", "145848.126000", "145848.129000", "145908.038000", "145908.047000", "145908.050000", "145908.052000", "145908.055000", "145908.058000", "145908.061000", "145908.064000", "145908.067000", "145908.070000", "145908.073000", "145908.075000", "145908.078000", "145908.081000", "145908.084000", "145908.087000", "145908.090000", "145908.093000", "145908.108000", "145908.111000", "145928.038000", "145928.041000", "145928.044000", "145928.046000", "145928.049000", "145928.052000", "145928.055000", "145928.058000", "145928.061000", "145928.064000", "145928.067000", "145928.069000", "145928.072000", "145928.075000", "145928.078000", "145928.081000", "145928.084000", "145928.087000", "145928.090000", "145928.092000", "145948.038000", "145948.041000", "145948.044000", "145948.046000", "145948.050000", "145948.052000", "145948.055000", "145948.058000", "145948.061000", "145948.064000", "145948.067000", "145948.069000", "145948.072000", "145948.075000", "145948.078000", "145948.081000", "145948.084000", "145948.087000", "145948.090000", "145948.092000", "150008.038000", "150008.041000", "150008.044000", "150008.046000", "150008.049000", "150008.052000", "150008.055000", "150008.058000", "150008.061000", "150008.064000", "150008.067000", "150008.070000", "150008.073000", "150008.075000", "150008.078000", "150008.081000", "150008.084000", "150008.087000", "150008.090000", "150008.093000", "150028.038000", "150028.041000", "150028.044000", "150028.046000", "150028.050000", "150028.052000", "150028.055000", "150028.058000", "150028.061000", "150028.064000", "150028.067000", "150028.070000", "150028.073000", "150028.075000", "150028.078000", "150028.081000", "150108.038000", "150108.041000", "150108.044000", "150108.047000", "150108.050000", "150108.052000", "150108.055000", "150108.058000", "150108.061000", "150108.064000", "150108.067000", "150108.070000", "150108.073000", "150108.075000", "150108.078000", "150108.081000", "150108.084000", "150108.087000", "150108.090000", "150108.093000", "150108.096000", "150108.099000", "150108.101000", "150108.104000", "150108.107000", "150108.110000", "150108.113000", "150148.038000", "150148.041000", "150148.044000", "150148.047000", "150148.049000", "150148.056000", "150148.059000", "150148.061000", "150148.064000", "150148.067000", "150148.070000", "150148.073000", "150148.076000", "150148.079000", "150148.082000", "150148.084000", "150148.087000", "150148.090000", "150148.093000", "150148.096000", "150148.099000", "150148.102000", "150148.105000", "150148.108000", "150148.110000", "150148.113000", "150148.116000", "150228.038000", "150228.041000", "150228.044000", "150228.047000", "150228.050000", "150228.053000", "150228.056000", "150228.059000", "150228.061000", "150228.064000", "150228.067000", "150228.070000", "150228.073000", "150228.076000", "150228.079000", "150228.082000", "150228.085000", "150228.087000", "150228.090000", "150228.093000", "150228.096000", "150228.099000", "150228.102000", "150228.105000", "150228.108000", "150228.111000", "150308.039000", "150308.042000", "150308.045000", "150308.048000", "150308.051000", "150308.053000", "150308.056000", "150308.059000", "150308.062000", "150308.065000", "150308.068000", "150308.071000", "150308.074000", "150308.076000", "150308.080000", "150308.082000", "150308.085000", "150308.088000", "150308.091000", "150308.094000", "150308.097000", "150308.100000", "150308.103000", "150308.105000", "150308.108000", "150308.111000", "150308.114000", "150348.038000", "150348.041000", "150348.044000", "150348.047000", "150348.050000", "150348.053000", "150348.056000", "150348.058000", "150348.061000", "150348.064000", "150348.067000", "150348.070000", "150348.073000", "150348.076000", "150348.079000", "150348.081000", "150348.095000", "150348.098000", "150348.101000", "150348.103000", "150348.106000", "150348.109000", "150348.112000", "150348.115000", "150348.118000", "150348.121000", "150348.124000", "150428.038000", "150428.041000", "150428.044000", "150428.047000", "150428.050000", "150428.053000", "150428.055000", "150428.058000", "150428.061000", "150428.064000", "150428.067000", "150428.070000", "150428.073000", "150428.076000", "150428.078000", "150428.081000", "150428.084000", "150428.087000", "150428.090000", "150428.093000", "150428.096000", "150428.099000", "150428.101000", "150428.104000", "150428.107000", "150428.110000", "150428.113000", "150508.038000", "150508.041000", "150508.044000", "150508.047000", "150508.050000", "150508.053000", "150508.055000", "150508.058000", "150508.061000", "150508.064000", "150508.067000", "150508.070000", "150508.073000", "150508.076000", "150508.078000", "150508.082000", "150508.084000", "150508.087000", "150508.090000", "150508.093000", "150508.096000", "150508.099000", "150508.102000", "150508.105000", "150508.108000", "150508.110000", "150508.113000", "150548.038000", "150548.041000", "150548.044000", "150548.047000", "150548.050000", "150548.057000", "150548.060000", "150548.063000", "150548.066000", "150548.069000", "150548.072000", "150548.075000", "150548.078000", "150548.081000", "150548.084000", "150548.086000", "150548.089000", "150548.092000", "150548.095000", "150548.098000", "150548.101000", "150548.104000", "150548.107000", "150548.110000", "150548.112000", "150548.115000", "150548.118000", "150628.038000", "150628.041000", "150628.044000", "150628.047000", "150628.050000", "150628.053000", "150628.056000", "150628.058000", "150628.061000", "150628.064000", "150628.067000", "150628.070000", "150628.073000", "150628.076000", "150628.079000", "150628.082000", "150628.084000", "150628.087000", "150628.090000", "150628.093000", "150628.096000", "150628.099000", "150628.102000", "150628.105000", "150628.108000", "150628.111000", "150628.113000", "150708.038000", "150708.041000", "150708.044000", "150708.047000", "150708.050000", "150708.052000", "150708.056000", "150708.058000", "150708.061000", "150708.064000", "150708.067000", "150708.070000", "150708.073000", "150708.076000", "150708.079000", "150708.082000", "150708.085000", "150708.088000", "150708.091000", "150708.093000", "150708.096000", "150708.099000", "150708.102000", "150708.106000", "150708.109000", "150708.112000", "150748.039000", "150748.042000", "150748.045000", "150748.048000", "150748.051000", "150748.053000", "150748.056000", "150748.059000", "150748.062000", "150748.076000", "150748.079000", "150748.082000", "150748.085000", "150748.088000", "150748.091000", "150748.094000", "150748.097000", "150748.100000", "150748.103000", "150748.105000", "150748.108000", "150748.111000", "150748.114000", "150748.117000", "150748.120000", "150748.123000", "150748.126000", "150828.038000", "150828.041000", "150828.044000", "150828.047000", "150828.050000", "150828.053000", "150828.056000", "150828.058000", "150828.061000", "150828.064000", "150828.067000", "150828.070000", "150828.073000", "150828.076000", "150828.079000", "150828.082000", "150828.084000", "150828.105000", "150828.108000", "150828.111000", "150828.114000", "150828.117000", "150828.120000", "150828.123000", "150828.126000", "150828.129000", "150828.132000", "150908.038000", "150908.041000", "150908.044000", "150908.047000", "150908.050000", "150908.053000", "150908.055000", "150908.058000", "150908.061000", "150908.064000", "150908.067000", "150908.070000", "150908.073000", "150908.076000", "150908.079000", "150908.081000", "150908.084000", "150908.087000", "150908.090000", "150908.093000", "150908.096000", "150908.099000", "150908.102000", "150908.105000", "150908.108000", "150908.111000", "150908.113000", "150948.038000", "150948.041000", "150948.044000", "150948.047000", "150948.050000", "150948.053000", "150948.055000", "150948.058000", "150948.061000", "150948.064000", "150948.067000", "150948.070000", "150948.073000", "150948.076000", "150948.079000", "150948.082000", "150948.084000", "150948.087000", "150948.090000", "150948.093000", "150948.096000", "150948.099000", "150948.102000", "150948.105000", "150948.108000", "150948.111000", "150948.113000", "151028.038000", "151028.041000", "151028.044000", "151028.047000", "151028.050000", "151028.053000", "151028.064000", "151028.067000", "151028.070000", "151028.073000", "151028.076000", "151028.079000", "151028.081000", "151028.084000", "151028.087000", "151028.090000", "151028.093000", "151028.096000", "151028.099000", "151028.102000", "151028.105000", "151028.108000", "151028.111000", "151028.113000", "151028.116000", "151028.119000", "151028.122000", "151031.299000", "151031.302000"],
