{
  "AcquisitionMatrixPE": 104,
  "AcquisitionNumber": 1,
  "AcquisitionTime": "15:38:3.637500",
  "BandwidthPerPixelPhaseEncode": 17.17,
  "BaseResolution": 104,
  "BodyPartExamined": "BRAIN",
  "CoilString": "HC1-7;NC1_2",
  "ConsistencyInfo": "N4_VE11C_LATEST_20160120",
  "ConversionSoftware": "dcm2niix",
  "ConversionSoftwareVersion": "v1.0.20190902",
  "DerivedVendorReportedEchoSpacing": 0.000560011,
  "DeviceSerialNumber": "167006",
  "DwellTime": 2.1e-06,
  "EchoTime": 0.037,
  "EchoTrainLength": 104,
  "EffectiveEchoSpacing": 0.000560011,
  "FlipAngle": 52,
  "ImageComments": "Unaliased_MB4_PE3_LB",
  "ImageOrientationPatientDICOM": [0.999705, -0.0242731, 0.000366328, 0.0230356, 0.943762, -0.329821],
  "ImageType": [
    "ORIGINAL",
    "PRIMARY",
    "M",
    "MB",
    "ND",
    "MOSAIC"
],
  "ImagingFrequency": 123.259,
  "InPlanePhaseEncodingDirectionDICOM": "COL",
  "InstitutionAddress": "Chemin_Queen-Mary_4565_Montreal_District_CA_H3W_1W5",
  "InstitutionName": "IUGM",
  "InstitutionalDepartmentName": "Department",
  "MRAcquisitionType": "2D",
  "MagneticFieldStrength": 3,
  "Manufacturer": "Siemens",
  "ManufacturersModelName": "Prisma_fit",
  "Modality": "MR",
  "MultibandAccelerationFactor": 4,
  "PartialFourier": 1,
  "PatientPosition": "HFS",
  "PercentPhaseFOV": 100,
  "PhaseEncodingDirection": "j",
  "PhaseEncodingSteps": 104,
  "PhaseResolution": 1,
  "PixelBandwidth": 2290,
  "ProcedureStepDescription": "games_shinobi",
  "ProtocolName": "func_task-shinobi_run-4",
  "PulseSequenceDetails": "%CustomerSeq%_cmrr_mbep2d_bold",
  "ReceiveCoilActiveElements": "HC1-7;NC1,2",
  "ReceiveCoilName": "HeadNeck_64",
  "ReconMatrixPE": 104,
  "RepetitionTime": 1.49,
  "SAR": 0.0349749,
  "ScanOptions": "FS",
  "ScanningSequence": "EP",
  "SequenceName": "epfid2d1_104",
  "SequenceVariant": "SK_SS",
  "SeriesDescription": "func_task-shinobi_run-4",
  "SeriesNumber": 15,
  "ShimSetting": [638, -7256, -8852, 637, 38, -235, -47, -24],
  "SliceThickness": 2,
  "SliceTiming": [0, 0.7825, 0.0975, 0.88, 0.195, 0.98, 0.2925, 1.0775, 0.39, 1.175, 0.49, 1.2725, 0.5875, 1.37, 0.685, 0, 0.7825, 0.0975, 0.88, 0.195, 0.98, 0.2925, 1.0775, 0.39, 1.175, 0.49, 1.2725, 0.5875, 1.37, 0.685, 0, 0.7825, 0.0975, 0.88, 0.195, 0.98, 0.2925, 1.0775, 0.39, 1.175, 0.49, 1.2725, 0.5875, 1.37, 0.685, 0, 0.7825, 0.0975, 0.88, 0.195, 0.98, 0.2925, 1.0775, 0.39, 1.175, 0.49, 1.2725, 0.5875, 1.37, 0.685],
  "SoftwareVersions": "syngo_MR_E11",
  "SpacingBetweenSlices": 2,
  "StationName": "MRC35049",
  "TaskName": "shinobi",
  "TotalReadoutTime": 0.0576811,
  "TxRefAmp": 229.509,
  "WipMemBlock": "d26bbec6-5196-4214-a0bf-f837de1ee3a4||Sequence: R016 ve11c/master r/e634e98; Dec 19 2017 11:00:25 by eja",
  "dcmmeta_affine": [
    [-1.999410629272461, 0.04607120901346207, -0.01532006822526455, 104.34550476074219],
    [0.04854610189795494, 1.8875248432159424, -0.6594643592834473, -67.8159408569336],
    [0.0007326554623432457, 0.6596418619155884, 1.8880869150161743, -70.09609985351562],
    [0.0, 0.0, 0.0, 1.0]
],
  "dcmmeta_reorient_transform": [
    [0.0, -1.0, 0.0, 103.0],
    [1.0, 0.0, 0.0, 0.0],
    [0.0, 0.0, 1.0, 0.0],
    [0.0, 0.0, 0.0, 1.0]
],
  "dcmmeta_shape": [104, 104, 60, 459],
  "dcmmeta_slice_dim": 2,
  "dcmmeta_version": 0.6,
  "global": {
    "const": {
      "AcquisitionMatrix": [104, 0, 0, 104],
      "AngioFlag": "N",
      "BitsAllocated": 16,
      "BitsStored": 16,
      "BodyPartExamined": "BRAIN",
      "Columns": 832,
      "EchoNumbers": 1,
      "EchoTime": 37.0,
      "EchoTrainLength": 104,
      "FlipAngle": 52.0,
      "HighBit": 15,
      "ImageOrientationPatient": [0.99970529898545, -0.0242730505789, 0.00036632772261, 0.0230356041387, 0.94376242052154, -0.3298209431696],
      "ImagePositionPatient": [-853.64621999258, -795.98738288882, 237.68997647158],
      "ImageType": [
        "ORIGINAL",
        "PRIMARY",
        "M",
        "MB",
        "ND",
        "MOSAIC"
],
      "ImagedNucleus": "1H",
      "ImagingFrequency": 123.259302,
      "InPlanePhaseEncodingDirection": "COL",
      "MRAcquisitionType": "2D",
      "MagneticFieldStrength": 3.0,
      "Manufacturer": "SIEMENS",
      "ManufacturerModelName": "Prisma_fit",
      "Modality": "MR",
      "NumberOfAverages": 1.0,
      "NumberOfPhaseEncodingSteps": 104,
      "PercentPhaseFieldOfView": 100.0,
      "PercentSampling": 100.0,
      "PerformedProcedureStepStartTime": "143708.502000",
      "PhotometricInterpretation": "MONOCHROME2",
      "PixelBandwidth": 2290.0,
      "PixelRepresentation": 0,
      "PixelSpacing": [2.0, 2.0],
      "ProtocolName": "func_task-shinobi_run-4",
      "RepetitionTime": 1490.0,
      "Rows": 832,
      "SAR": 0.03497493441711,
      "SamplesPerPixel": 1,
      "ScanOptions": "FS",
      "ScanningSequence": "EP",
      "SequenceName": "epfid2d1_104",
      "SequenceVariant": [
        "SK",
        "SS"
],
      "SeriesDescription": "func_task-shinobi_run-4",
      "SeriesNumber": 15,
      "SeriesTime": "153928.074000",
      "SliceLocation": -44.611954331173,
      "SliceThickness": 2.0,
      "SmallestImagePixelValue": 0,
      "SoftwareVersions": "syngo MR E11",
      "SpacingBetweenSlices": 2.000000058609,
      "SpecificCharacterSet": "ISO_IR 100",
      "StudyID": "1",
      "StudyTime": "143708.398000",
      "TransmitCoilName": "Body",
      "VariableFlipAngleFlag": "N",
      "WindowCenterWidthExplanation": "Algo1",
      "dBdt": 0.0},
    "slices": {}
  },
  "time": {
    "samples": {
      "AcquisitionNumber": [1, 2, 3, 4, 5, 6, 7, 8, 9, 10, 11, 12, 13, 14, 15, 16, 17, 18, 19, 20, 21, 22, 23, 24, 25, 26, 27, 28, 29, 30, 31, 32, 33, 34, 35, 36, 37, 38, 39, 40, 41, 42, 43, 44, 45, 46, 47, 48, 49, 50, 51, 52, 53, 54, 55, 56, 57, 58, 59, 60, 61, 62, 63, 64, 65, 66, 67, 68, 69, 70, 71, 72, 73, 74, 75, 76, 77, 78, 79, 80, 81, 82, 83, 84, 85, 86, 87, 88, 89, 90, 91, 92, 93, 94, 95, 96, 97, 98, 99, 100, 101, 102, 103, 104, 105, 106, 107, 108, 109, 110, 111, 112, 113, 114, 115, 116, 117, 118, 119, 120, 121, 122, 123, 124, 125, 126, 127, 128, 129, 130, 131, 132, 133, 134, 135, 136, 137, 138, 139, 140, 141, 142, 143, 144, 145, 146, 147, 148, 149, 150, 151, 152, 153, 154, 155, 156, 157, 158, 159, 160, 161, 162, 163, 164, 165, 166, 167, 168, 169, 170, 171, 172, 173, 174, 175, 176, 177, 178, 179, 180, 181, 182, 183, 184, 185, 186, 187, 188, 189, 190, 191, 192, 193, 194, 195, 196, 197, 198, 199, 200, 201, 202, 203, 204, 205, 206, 207, 208, 209, 210, 211, 212, 213, 214, 215, 216, 217, 218, 219, 220, 221, 222, 223, 224, 225, 226, 227, 228, 229, 230, 231, 232, 233, 234, 235, 236, 237, 238, 239, 240, 241, 242, 243, 244, 245, 246, 247, 248, 249, 250, 251, 252, 253, 254, 255, 256, 257, 258, 259, 260, 261, 262, 263, 264, 265, 266, 267, 268, 269, 270, 271, 272, 273, 274, 275, 276, 277, 278, 279, 280, 281, 282, 283, 284, 285, 286, 287, 288, 289, 290, 291, 292, 293, 294, 295, 296, 297, 298, 299, 300, 301, 302, 303, 304, 305, 306, 307, 308, 309, 310, 311, 312, 313, 314, 315, 316, 317, 318, 319, 320, 321, 322, 323, 324, 325, 326, 327, 328, 329, 330, 331, 332, 333, 334, 335, 336, 337, 338, 339, 340, 341, 342, 343, 344, 345, 346, 347, 348, 349, 350, 351, 352, 353, 354, 355, 356, 357, 358, 359, 360, 361, 362, 363, 364, 365, 366, 367, 368, 369, 370, 371, 372, 373, 374, 375, 376, 377, 378, 379, 380, 381, 382, 383, 384, 385, 386, 387, 388, 389, 390, 391, 392, 393, 394, 395, 396, 397, 398, 399, 400, 401, 402, 403, 404, 405, 406, 407, 408, 409, 410, 411, 412, 413, 414, 415, 416, 417, 418, 419, 420, 421, 422, 423, 424, 425, 426, 427, 428, 429, 430, 431, 432, 433, 434, 435, 436, 437, 438, 439, 440, 441, 442, 443, 444, 445, 446, 447, 448, 449, 450, 451, 452, 453, 454, 455, 456, 457, 458, 459],
      "AcquisitionTime": ["153803.637500", "153805.127500", "153806.617500", "153808.107500", "153809.597500", "153811.087500", "153812.577500", "153814.067500", "153815.557500", "153817.047500", "153818.537500", "153820.027500", "153821.517500", "153823.007500", "153824.497500", "153825.987500", "153827.477500", "153828.967500", "153830.457500", "153831.947500", "153833.437500", "153834.927500", "153836.417500", "153837.907500", "153839.397500", "153840.887500", "153842.377500", "153843.867500", "153845.357500", "153846.847500", "153848.337500", "153849.827500", "153851.317500", "153852.807500", "153854.297500", "153855.787500", "153857.277500", "153858.767500", "153900.257500", "153901.747500", "153903.237500", "153904.727500", "153906.217500", "153907.707500", "153909.197500", "153910.687500", "153912.177500", "153913.667500", "153915.157500", "153916.647500", "153918.137500", "153919.627500", "153921.117500", "153922.607500", "153924.097500", "153925.587500", "153927.077500", "153928.567500", "153930.057500", "153931.547500", "153933.037500", "153934.527500", "153936.017500", "153937.507500", "153938.997500", "153940.487500", "153941.977500", "153943.467500", "153944.957500", "153946.447500", "153947.937500", "153949.427500", "153950.917500", "153952.407500", "153953.897500", "153955.387500", "153956.877500", "153958.367500", "153959.857500", "154001.347500", "154002.837500", "154004.327500", "154005.817500", "154007.307500", "154008.797500", "154010.287500", "154011.777500", "154013.267500", "154014.757500", "154016.247500", "154017.737500", "154019.227500", "154020.717500", "154022.207500", "154023.697500", "154025.187500", "154026.677500", "154028.167500", "154029.657500", "154031.147500", "154032.637500", "154034.127500", "154035.617500", "154037.107500", "154038.597500", "154040.087500", "154041.577500", "154043.067500", "154044.557500", "154046.047500", "154047.537500", "154049.027500", "154050.517500", "154052.007500", "154053.497500", "154054.987500", "154056.477500", "154057.967500", "154059.457500", "154100.947500", "154102.437500", "154103.927500", "154105.417500", "154106.907500", "154108.397500", "154109.887500", "154111.377500", "154112.867500", "154114.357500", "154115.847500", "154117.337500", "154118.827500", "154120.317500", "154121.807500", "154123.297500", "154124.787500", "154126.277500", "154127.767500", "154129.257500", "154130.747500", "154132.237500", "154133.727500", "154135.217500", "154136.707500", "154138.197500", "154139.687500", "154141.177500", "154142.667500", "154144.157500", "154145.647500", "154147.137500", "154148.627500", "154150.117500", "154151.607500", "154153.097500", "154154.587500", "154156.077500", "154157.567500", "154159.057500", "154200.547500", "154202.037500", "154203.527500", "154205.017500", "154206.507500", "154207.997500", "154209.487500", "154210.977500", "154212.467500", "154213.957500", "154215.447500", "154216.937500", "154218.427500", "154219.917500", "154221.407500", "154222.897500", "154224.387500", "154225.877500", "154227.367500", "154228.857500", "154230.347500", "154231.837500", "154233.327500", "154234.817500", "154236.307500", "154237.797500", "154239.287500", "154240.777500", "154242.267500", "154243.757500", "154245.247500", "154246.737500", "154248.227500", "154249.717500", "154251.207500", "154252.697500", "154254.187500", "154255.677500", "154257.167500", "154258.657500", "154300.147500", "154301.637500", "154303.127500", "154304.617500", "154306.107500", "154307.597500", "154309.087500", "154310.577500", "154312.067500", "154313.557500", "154315.047500", "154316.537500", "154318.027500", "154319.517500", "154321.007500", "154322.497500", "154323.987500", "154325.477500", "154326.967500", "154328.457500", "154329.947500", "154331.437500", "154332.927500", "154334.417500", "154335.907500", "154337.397500", "154338.887500", "154340.377500", "154341.867500", "154343.357500", "154344.847500", "154346.337500", "154347.827500", "154349.317500", "154350.807500", "154352.297500", "154353.787500", "154355.277500", "154356.767500", "154358.257500", "154359.747500", "154401.237500", "154402.727500", "154404.217500", "154405.707500", "154407.197500", "154408.687500", "154410.177500", "154411.667500", "154413.157500", "154414.647500", "154416.137500", "154417.627500", "154419.117500", "154420.607500", "154422.097500", "154423.587500", "154425.077500", "154426.567500", "154428.057500", "154429.547500", "154431.037500", "154432.527500", "154434.017500", "154435.507500", "154436.997500", "154438.487500", "154439.977500", "154441.467500", "154442.957500", "154444.447500", "154445.937500", "154447.427500", "154448.917500", "154450.407500", "154451.897500", "154453.387500", "154454.877500", "154456.367500", "154457.857500", "154459.347500", "154500.837500", "154502.327500", "154503.817500", "154505.307500", "154506.797500", "154508.287500", "154509.777500", "154511.267500", "154512.757500", "154514.247500", "154515.737500", "154517.227500", "154518.717500", "154520.207500", "154521.697500", "154523.187500", "154524.677500", "154526.167500", "154527.657500", "154529.147500", "154530.637500", "154532.127500", "154533.617500", "154535.107500", "154536.597500", "154538.087500", "154539.577500", "154541.067500", "154542.557500", "154544.047500", "154545.537500", "154547.027500", "154548.517500", "154550.007500", "154551.497500", "154552.987500", "154554.477500", "154555.967500", "154557.457500", "154558.947500", "154600.437500", "154601.927500", "154603.417500", "154604.907500", "154606.397500", "154607.887500", "154609.377500", "154610.867500", "154612.357500", "154613.847500", "154615.337500", "154616.827500", "154618.317500", "154619.807500", "154621.297500", "154622.787500", "154624.277500", "154625.767500", "154627.257500", "154628.747500", "154630.237500", "154631.727500", "154633.217500", "154634.707500", "154636.197500", "154637.687500", "154639.177500", "154640.667500", "154642.157500", "154643.647500", "154645.137500", "154646.627500", "154648.117500", "154649.607500", "154651.097500", "154652.587500", "154654.077500", "154655.567500", "154657.057500", "154658.547500", "154700.037500", "154701.527500", "154703.017500", "154704.507500", "154705.997500", "154707.487500", "154708.977500", "154710.467500", "154711.957500", "154713.447500", "154714.937500", "154716.427500", "154717.917500", "154719.407500", "154720.897500", "154722.387500", "154723.877500", "154725.367500", "154726.857500", "154728.347500", "154729.837500", "154731.327500", "154732.817500", "154734.307500", "154735.797500", "154737.287500", "154738.777500", "154740.267500", "154741.757500", "154743.247500", "154744.737500", "154746.227500", "154747.717500", "154749.207500", "154750.697500", "154752.187500", "154753.677500", "154755.167500", "154756.657500", "154758.147500", "154759.637500", "154801.127500", "154802.617500", "154804.107500", "154805.597500", "154807.087500", "154808.577500", "154810.067500", "154811.557500", "154813.047500", "154814.537500", "154816.027500", "154817.517500", "154819.007500", "154820.497500", "154821.987500", "154823.477500", "154824.967500", "154826.457500", "154827.947500", "154829.437500", "154830.927500", "154832.417500", "154833.907500", "154835.397500", "154836.887500", "154838.377500", "154839.867500", "154841.357500", "154842.847500", "154844.337500", "154845.827500", "154847.317500", "154848.807500", "154850.297500", "154851.787500", "154853.277500", "154854.767500", "154856.257500", "154857.747500", "154859.237500", "154900.727500", "154902.217500", "154903.707500", "154905.197500", "154906.687500", "154908.177500", "154909.667500", "154911.157500", "154912.647500", "154914.137500", "154915.627500", "154917.117500", "154918.607500", "154920.097500", "154921.587500", "154923.077500", "154924.567500", "154926.057500"],
      "ContentTime": ["153928.077000", "153928.080000", "153928.083000", "153928.086000", "153928.093000", "153928.095000", "153928.098000", "153928.101000", "153928.104000", "153928.107000", "153928.110000", "153928.113000", "153928.116000", "153928.119000", "153928.121000", "153928.124000", "153928.127000", "153928.130000", "153928.133000", "153928.136000", "153928.139000", "153928.142000", "153928.144000", "153928.147000", "153928.153000", "153928.174000", "153928.176000", "153928.179000", "153928.182000", "153928.188000", "153928.191000", "153928.193000", "153948.038000", "153948.041000", "153948.044000", "153948.047000", "153948.049000", "153948.052000", "153948.055000", "153948.058000", "153948.061000", "153948.064000", "153948.067000", "153948.070000", "153948.072000", "153948.078000", "153948.080000", "153948.083000", "153948.086000", "153948.089000", "153948.092000", "153948.095000", "154008.039000", "154008.042000", "154008.051000", "154008.054000", "154008.057000", "154008.060000", "154008.062000", "154008.065000", "154008.068000", "154008.071000", "154008.074000", "154008.077000", "154008.080000", "154008.083000", "154008.085000", "154008.088000", "154008.091000", "154008.094000", "154008.097000", "154008.100000", "154028.038000", "154028.041000", "154028.044000", "154028.047000", "154028.050000", "154028.052000", "154028.055000", "154028.058000", "154028.061000", "154028.064000", "154028.067000", "154028.070000", "154028.072000", "154028.075000", "154028.078000", "154028.081000", "154028.084000", "154028.087000", "154028.089000", "154028.092000", "154108.038000", "154108.041000", "154108.044000", "154108.047000", "154108.050000", "154108.053000", "154108.055000", "154108.058000", "154108.061000", "154108.064000", "154108.067000", "154108.070000", "154108.073000", "154108.076000", "154108.079000", "154108.082000", "154108.084000", "154108.087000", "154108.090000", "154108.093000", "154108.096000", "154108.099000", "154108.102000", "154108.104000", "154108.107000", "154108.110000", "154108.113000", "154108.116000", "154108.119000", "154108.122000", "154108.125000", "154148.038000", "154148.041000", "154148.044000", "154148.047000", "154148.050000", "154148.052000", "154148.055000", "154148.058000", "154148.061000", "154148.064000", "154148.067000", "154148.070000", "154148.073000", "154148.076000", "154148.078000", "154148.081000", "154148.084000", "154148.087000", "154148.090000", "154148.093000", "154148.096000", "154148.099000", "154148.101000", "154148.104000", "154148.107000", "154148.110000", "154148.113000", "154228.039000", "154228.042000", "154228.045000", "154228.048000", "154228.051000", "154228.054000", "154228.056000", "154228.059000", "154228.062000", "154228.065000", "154228.068000", "154228.071000", "154228.074000", "154228.077000", "154228.079000", "154228.088000", "154228.091000", "154228.093000", "154228.096000", "154228.099000", "154228.102000", "154228.105000", "154228.108000", "154228.111000", "154228.114000", "154228.117000", "154228.119000", "154308.038000", "154308.041000", "154308.044000", "154308.047000", "154308.050000", "154308.052000", "154308.055000", "154308.058000", "154308.061000", "154308.064000", "154308.067000", "154308.070000", "154308.073000", "154308.076000", "154308.079000", "154308.081000", "154308.084000", "154308.087000", "154308.090000", "154308.093000", "154308.096000", "154308.099000", "154308.102000", "154308.105000", "154308.107000", "154308.110000", "154308.113000", "154348.038000", "154348.041000", "154348.044000", "154348.047000", "154348.050000", "154348.053000", "154348.055000", "154348.058000", "154348.061000", "154348.064000", "154348.067000", "154348.070000", "154348.073000", "154348.076000", "154348.079000", "154348.082000", "154348.084000", "154348.092000", "154348.094000", "154348.097000", "154348.100000", "154348.103000", "154348.106000", "154348.120000", "154348.123000", "154348.126000", "154348.129000", "154428.038000", "154428.041000", "154428.044000", "154428.047000", "154428.050000", "154428.052000", "154428.056000", "154428.059000", "154428.062000", "154428.065000", "154428.068000", "154428.071000", "154428.074000", "154428.077000", "154428.080000", "154428.083000", "154428.085000", "154428.088000", "154428.091000", "154428.094000", "154428.097000", "154428.100000", "154428.103000", "154428.105000", "154428.108000", "154428.111000", "154508.038000", "154508.041000", "154508.044000", "154508.047000", "154508.050000", "154508.053000", "154508.055000", "154508.058000", "154508.061000", "154508.064000", "154508.067000", "154508.070000", "154508.073000", "154508.076000", "154508.079000", "154508.081000", "154508.084000", "154508.087000", "154508.090000", "154508.093000", "154508.096000", "154508.099000", "154508.102000", "154508.104000", "154508.107000", "154508.110000", "154508.113000", "154548.038000", "154548.041000", "154548.044000", "154548.047000", "154548.050000", "154548.053000", "154548.056000", "154548.059000", "154548.061000", "154548.064000", "154548.067000", "154548.070000", "154548.073000", "154548.076000", "154548.079000", "154548.082000", "154548.085000", "154548.088000", "154548.091000", "154548.093000", "154548.096000", "154548.099000", "154548.102000", "154548.105000", "154548.108000", "154548.111000", "154548.114000", "154628.038000", "154628.041000", "154628.044000", "154628.047000", "154628.050000", "154628.053000", "154628.056000", "154628.059000", "154628.062000", "154628.065000", "154628.067000", "154628.070000", "154628.073000", "154628.076000", "154628.079000", "154628.082000", "154628.085000", "154628.088000", "154628.091000", "154628.093000", "154628.096000", "154628.099000", "154628.102000", "154628.105000", "154628.108000", "154628.111000", "154628.114000", "154708.039000", "154708.042000", "154708.045000", "154708.048000", "154708.051000", "154708.054000", "154708.056000", "154708.060000", "154708.062000", "154708.065000", "154708.068000", "154708.071000", "154708.074000", "154708.077000", "154708.080000", "154708.083000", "154708.086000", "154708.089000", "154708.091000", "154708.094000", "154708.097000", "154708.100000", "154708.103000", "154708.106000", "154708.109000", "154708.112000", "154708.115000", "154748.038000", "154748.041000", "154748.044000", "154748.047000", "154748.050000", "154748.052000", "154748.055000", "154748.058000", "154748.061000", "154748.064000", "154748.067000", "154748.070000", "154748.073000", "154748.076000", "154748.079000", "154748.082000", "154748.084000", "154748.087000", "154748.090000", "154748.093000", "154748.096000", "154748.099000", "154748.102000", "154748.105000", "154748.108000", "154748.110000", "154748.113000", "154828.038000", "154828.041000", "154828.044000", "154828.047000", "154828.050000", "154828.053000", "154828.055000", "154828.058000", "154828.061000", "154828.064000", "154828.067000", "154828.070000", "154828.073000", "154828.076000", "154828.080000", "154828.083000", "154828.086000", "154828.089000", "154828.092000", "154828.095000", "154828.098000", "154828.101000", "154828.104000", "154828.120000", "154828.123000", "154828.126000", "154908.038000", "154908.041000", "154908.044000", "154908.047000", "154908.050000", "154908.053000", "154908.055000", "154908.059000", "154908.061000", "154908.064000", "154908.067000", "154908.070000", "154908.073000", "154908.076000", "154908.079000", "154908.082000", "154908.084000", "154908.087000", "154908.090000", "154908.093000", "154908.096000", "154908.099000", "154908.102000", "154908.105000", "154908.107000", "154908.110000", "154908.113000", "154928.191000", "154928.194000", "154928.197000", "154928.200000", "154928.203000", "154928.206000", "154928.209000", "154928.212000", "154928.215000", "154928.218000", "154928.220000", "154928.223000", "154928.226000", "154928.229000"],
