{
  "AcquisitionMatrixPE": 104,
  "AcquisitionNumber": 1,
  "AcquisitionTime": "15:12:32.950000",
  "BandwidthPerPixelPhaseEncode": 17.17,
  "BaseResolution": 104,
  "BodyPartExamined": "BRAIN",
  "CoilString": "HC1-7;NC1_2",
  "ConsistencyInfo": "N4_VE11C_LATEST_20160120",
  "ConversionSoftware": "dcm2niix",
  "ConversionSoftwareVersion": "v1.0.20190902",
  "DerivedVendorReportedEchoSpacing": 0.000560011,
  "DeviceSerialNumber": "167006",
  "DwellTime": 2.1e-06,
  "EchoTime": 0.037,
  "EchoTrainLength": 104,
  "EffectiveEchoSpacing": 0.000560011,
  "FlipAngle": 52,
  "ImageComments": "Unaliased_MB4_PE3_LB",
  "ImageOrientationPatientDICOM": [0.999705, -0.0242731, 0.000366328, 0.0230356, 0.943762, -0.329821],
  "ImageType": [
    "ORIGINAL",
    "PRIMARY",
    "M",
    "MB",
    "ND",
    "MOSAIC"
],
  "ImagingFrequency": 123.259,
  "InPlanePhaseEncodingDirectionDICOM": "COL",
  "InstitutionAddress": "Chemin_Queen-Mary_4565_Montreal_District_CA_H3W_1W5",
  "InstitutionName": "IUGM",
  "InstitutionalDepartmentName": "Department",
  "MRAcquisitionType": "2D",
  "MagneticFieldStrength": 3,
  "Manufacturer": "Siemens",
  "ManufacturersModelName": "Prisma_fit",
  "Modality": "MR",
  "MultibandAccelerationFactor": 4,
  "PartialFourier": 1,
  "PatientPosition": "HFS",
  "PercentPhaseFOV": 100,
  "PhaseEncodingDirection": "j",
  "PhaseEncodingSteps": 104,
  "PhaseResolution": 1,
  "PixelBandwidth": 2290,
  "ProcedureStepDescription": "games_shinobi",
  "ProtocolName": "func_task-shinobi_run-2",
  "PulseSequenceDetails": "%CustomerSeq%_cmrr_mbep2d_bold",
  "ReceiveCoilActiveElements": "HC1-7;NC1,2",
  "ReceiveCoilName": "HeadNeck_64",
  "ReconMatrixPE": 104,
  "RepetitionTime": 1.49,
  "SAR": 0.0349749,
  "ScanOptions": "FS",
  "ScanningSequence": "EP",
  "SequenceName": "epfid2d1_104",
  "SequenceVariant": "SK_SS",
  "SeriesDescription": "func_task-shinobi_run-2",
  "SeriesNumber": 11,
  "ShimSetting": [638, -7256, -8852, 637, 38, -235, -47, -24],
  "SliceThickness": 2,
  "SliceTiming": [0, 0.7825, 0.0975, 0.88, 0.195, 0.98, 0.2925, 1.0775, 0.39, 1.175, 0.49, 1.2725, 0.5875, 1.37, 0.685, 0, 0.7825, 0.0975, 0.88, 0.195, 0.98, 0.2925, 1.0775, 0.39, 1.175, 0.49, 1.2725, 0.5875, 1.37, 0.685, 0, 0.7825, 0.0975, 0.88, 0.195, 0.98, 0.2925, 1.0775, 0.39, 1.175, 0.49, 1.2725, 0.5875, 1.37, 0.685, 0, 0.7825, 0.0975, 0.88, 0.195, 0.98, 0.2925, 1.0775, 0.39, 1.175, 0.49, 1.2725, 0.5875, 1.37, 0.685],
  "SoftwareVersions": "syngo_MR_E11",
  "SpacingBetweenSlices": 2,
  "StationName": "MRC35049",
  "TaskName": "shinobi",
  "TotalReadoutTime": 0.0576811,
  "TxRefAmp": 229.509,
  "WipMemBlock": "2100f207-faf8-42ab-a230-5bbb2f5b71cf||Sequence: R016 ve11c/master r/e634e98; Dec 19 2017 11:00:25 by eja",
  "dcmmeta_affine": [
    [-1.999410629272461, 0.04607120901346207, -0.01532006822526455, 104.34550476074219],
    [0.04854610189795494, 1.8875248432159424, -0.6594643592834473, -67.8159408569336],
    [0.0007326554623432457, 0.6596418619155884, 1.8880869150161743, -70.09609985351562],
    [0.0, 0.0, 0.0, 1.0]
],
  "dcmmeta_reorient_transform": [
    [0.0, -1.0, 0.0, 103.0],
    [1.0, 0.0, 0.0, 0.0],
    [0.0, 0.0, 1.0, 0.0],
    [0.0, 0.0, 0.0, 1.0]
],
  "dcmmeta_shape": [104, 104, 60, 442],
  "dcmmeta_slice_dim": 2,
  "dcmmeta_version": 0.6,
  "global": {
    "const": {
      "AcquisitionMatrix": [104, 0, 0, 104],
      "AngioFlag": "N",
      "BitsAllocated": 16,
      "BitsStored": 16,
      "BodyPartExamined": "BRAIN",
      "Columns": 832,
      "EchoNumbers": 1,
      "EchoTime": 37.0,
      "EchoTrainLength": 104,
      "FlipAngle": 52.0,
      "HighBit": 15,
      "ImageOrientationPatient": [0.99970529898545, -0.0242730505789, 0.00036632772261, 0.0230356041387, 0.94376242052154, -0.3298209431696],
      "ImagePositionPatient": [-853.64621999258, -795.98738288882, 237.68997647158],
      "ImageType": [
        "ORIGINAL",
        "PRIMARY",
        "M",
        "MB",
        "ND",
        "MOSAIC"
],
      "ImagedNucleus": "1H",
      "ImagingFrequency": 123.259289,
      "InPlanePhaseEncodingDirection": "COL",
      "MRAcquisitionType": "2D",
      "MagneticFieldStrength": 3.0,
      "Manufacturer": "SIEMENS",
      "ManufacturerModelName": "Prisma_fit",
      "Modality": "MR",
      "NumberOfAverages": 1.0,
      "NumberOfPhaseEncodingSteps": 104,
      "PercentPhaseFieldOfView": 100.0,
      "PercentSampling": 100.0,
      "PerformedProcedureStepStartTime": "143708.502000",
      "PhotometricInterpretation": "MONOCHROME2",
      "PixelBandwidth": 2290.0,
      "PixelRepresentation": 0,
      "PixelSpacing": [2.0, 2.0],
      "ProtocolName": "func_task-shinobi_run-2",
      "RepetitionTime": 1490.0,
      "Rows": 832,
      "SAR": 0.03497493441711,
      "SamplesPerPixel": 1,
      "ScanOptions": "FS",
      "ScanningSequence": "EP",
      "SequenceName": "epfid2d1_104",
      "SequenceVariant": [
        "SK",
        "SS"
],
      "SeriesDescription": "func_task-shinobi_run-2",
      "SeriesNumber": 11,
      "SeriesTime": "151357.541000",
      "SliceLocation": -44.611954331173,
      "SliceThickness": 2.0,
      "SmallestImagePixelValue": 0,
      "SoftwareVersions": "syngo MR E11",
      "SpacingBetweenSlices": 2.000000058609,
      "SpecificCharacterSet": "ISO_IR 100",
      "StudyID": "1",
      "StudyTime": "143708.398000",
      "TransmitCoilName": "Body",
      "VariableFlipAngleFlag": "N",
      "WindowCenterWidthExplanation": "Algo1",
      "dBdt": 0.0},
    "slices": {}
  },
  "time": {
    "samples": {
      "AcquisitionNumber": [1, 2, 3, 4, 5, 6, 7, 8, 9, 10, 11, 12, 13, 14, 15, 16, 17, 18, 19, 20, 21, 22, 23, 24, 25, 26, 27, 28, 29, 30, 31, 32, 33, 34, 35, 36, 37, 38, 39, 40, 41, 42, 43, 44, 45, 46, 47, 48, 49, 50, 51, 52, 53, 54, 55, 56, 57, 58, 59, 60, 61, 62, 63, 64, 65, 66, 67, 68, 69, 70, 71, 72, 73, 74, 75, 76, 77, 78, 79, 80, 81, 82, 83, 84, 85, 86, 87, 88, 89, 90, 91, 92, 93, 94, 95, 96, 97, 98, 99, 100, 101, 102, 103, 104, 105, 106, 107, 108, 109, 110, 111, 112, 113, 114, 115, 116, 117, 118, 119, 120, 121, 122, 123, 124, 125, 126, 127, 128, 129, 130, 131, 132, 133, 134, 135, 136, 137, 138, 139, 140, 141, 142, 143, 144, 145, 146, 147, 148, 149, 150, 151, 152, 153, 154, 155, 156, 157, 158, 159, 160, 161, 162, 163, 164, 165, 166, 167, 168, 169, 170, 171, 172, 173, 174, 175, 176, 177, 178, 179, 180, 181, 182, 183, 184, 185, 186, 187, 188, 189, 190, 191, 192, 193, 194, 195, 196, 197, 198, 199, 200, 201, 202, 203, 204, 205, 206, 207, 208, 209, 210, 211, 212, 213, 214, 215, 216, 217, 218, 219, 220, 221, 222, 223, 224, 225, 226, 227, 228, 229, 230, 231, 232, 233, 234, 235, 236, 237, 238, 239, 240, 241, 242, 243, 244, 245, 246, 247, 248, 249, 250, 251, 252, 253, 254, 255, 256, 257, 258, 259, 260, 261, 262, 263, 264, 265, 266, 267, 268, 269, 270, 271, 272, 273, 274, 275, 276, 277, 278, 279, 280, 281, 282, 283, 284, 285, 286, 287, 288, 289, 290, 291, 292, 293, 294, 295, 296, 297, 298, 299, 300, 301, 302, 303, 304, 305, 306, 307, 308, 309, 310, 311, 312, 313, 314, 315, 316, 317, 318, 319, 320, 321, 322, 323, 324, 325, 326, 327, 328, 329, 330, 331, 332, 333, 334, 335, 336, 337, 338, 339, 340, 341, 342, 343, 344, 345, 346, 347, 348, 349, 350, 351, 352, 353, 354, 355, 356, 357, 358, 359, 360, 361, 362, 363, 364, 365, 366, 367, 368, 369, 370, 371, 372, 373, 374, 375, 376, 377, 378, 379, 380, 381, 382, 383, 384, 385, 386, 387, 388, 389, 390, 391, 392, 393, 394, 395, 396, 397, 398, 399, 400, 401, 402, 403, 404, 405, 406, 407, 408, 409, 410, 411, 412, 413, 414, 415, 416, 417, 418, 419, 420, 421, 422, 423, 424, 425, 426, 427, 428, 429, 430, 431, 432, 433, 434, 435, 436, 437, 438, 439, 440, 441, 442],
      "AcquisitionTime": ["151232.950000", "151234.440000", "151235.930000", "151237.420000", "151238.910000", "151240.400000", "151241.890000", "151243.380000", "151244.870000", "151246.360000", "151247.850000", "151249.340000", "151250.830000", "151252.320000", "151253.810000", "151255.300000", "151256.790000", "151258.280000", "151259.770000", "151301.260000", "151302.750000", "151304.240000", "151305.730000", "151307.220000", "151308.710000", "151310.200000", "151311.690000", "151313.180000", "151314.670000", "151316.160000", "151317.650000", "151319.140000", "151320.630000", "151322.120000", "151323.610000", "151325.100000", "151326.590000", "151328.080000", "151329.570000", "151331.060000", "151332.550000", "151334.040000", "151335.530000", "151337.020000", "151338.510000", "151340.000000", "151341.490000", "151342.980000", "151344.470000", "151345.960000", "151347.450000", "151348.940000", "151350.430000", "151351.920000", "151353.410000", "151354.900000", "151356.390000", "151357.880000", "151359.370000", "151400.860000", "151402.350000", "151403.840000", "151405.330000", "151406.820000", "151408.310000", "151409.800000", "151411.290000", "151412.780000", "151414.270000", "151415.760000", "151417.250000", "151418.740000", "151420.230000", "151421.720000", "151423.210000", "151424.700000", "151426.190000", "151427.680000", "151429.170000", "151430.660000", "151432.150000", "151433.640000", "151435.130000", "151436.620000", "151438.110000", "151439.600000", "151441.090000", "151442.580000", "151444.070000", "151445.560000", "151447.050000", "151448.540000", "151450.030000", "151451.520000", "151453.010000", "151454.500000", "151455.990000", "151457.480000", "151458.970000", "151500.460000", "151501.950000", "151503.440000", "151504.930000", "151506.420000", "151507.910000", "151509.400000", "151510.890000", "151512.380000", "151513.870000", "151515.360000", "151516.850000", "151518.340000", "151519.830000", "151521.320000", "151522.810000", "151524.300000", "151525.790000", "151527.280000", "151528.770000", "151530.260000", "151531.750000", "151533.240000", "151534.730000", "151536.220000", "151537.710000", "151539.200000", "151540.690000", "151542.180000", "151543.670000", "151545.160000", "151546.650000", "151548.140000", "151549.630000", "151551.120000", "151552.610000", "151554.100000", "151555.590000", "151557.080000", "151558.570000", "151600.060000", "151601.550000", "151603.040000", "151604.530000", "151606.020000", "151607.510000", "151609.000000", "151610.490000", "151611.980000", "151613.470000", "151614.960000", "151616.450000", "151617.940000", "151619.430000", "151620.920000", "151622.410000", "151623.900000", "151625.390000", "151626.880000", "151628.370000", "151629.860000", "151631.350000", "151632.840000", "151634.330000", "151635.820000", "151637.310000", "151638.800000", "151640.290000", "151641.780000", "151643.270000", "151644.760000", "151646.250000", "151647.740000", "151649.230000", "151650.720000", "151652.210000", "151653.700000", "151655.190000", "151656.680000", "151658.170000", "151659.660000", "151701.150000", "151702.640000", "151704.130000", "151705.620000", "151707.110000", "151708.600000", "151710.090000", "151711.580000", "151713.070000", "151714.560000", "151716.050000", "151717.540000", "151719.030000", "151720.520000", "151722.010000", "151723.500000", "151724.990000", "151726.480000", "151727.970000", "151729.460000", "151730.950000", "151732.440000", "151733.930000", "151735.420000", "151736.910000", "151738.400000", "151739.890000", "151741.380000", "151742.870000", "151744.360000", "151745.850000", "151747.340000", "151748.830000", "151750.320000", "151751.810000", "151753.300000", "151754.790000", "151756.280000", "151757.770000", "151759.260000", "151800.750000", "151802.240000", "151803.730000", "151805.220000", "151806.710000", "151808.200000", "151809.690000", "151811.180000", "151812.670000", "151814.160000", "151815.650000", "151817.140000", "151818.630000", "151820.120000", "151821.610000", "151823.100000", "151824.590000", "151826.080000", "151827.570000", "151829.060000", "151830.550000", "151832.040000", "151833.530000", "151835.020000", "151836.510000", "151838.000000", "151839.490000", "151840.980000", "151842.470000", "151843.960000", "151845.450000", "151846.940000", "151848.430000", "151849.920000", "151851.410000", "151852.900000", "151854.390000", "151855.880000", "151857.370000", "151858.860000", "151900.350000", "151901.840000", "151903.330000", "151904.820000", "151906.310000", "151907.800000", "151909.290000", "151910.780000", "151912.270000", "151913.760000", "151915.250000", "151916.740000", "151918.230000", "151919.720000", "151921.210000", "151922.700000", "151924.190000", "151925.680000", "151927.170000", "151928.660000", "151930.150000", "151931.640000", "151933.130000", "151934.620000", "151936.110000", "151937.600000", "151939.090000", "151940.580000", "151942.070000", "151943.560000", "151945.050000", "151946.540000", "151948.030000", "151949.520000", "151951.010000", "151952.500000", "151953.990000", "151955.480000", "151956.970000", "151958.460000", "151959.950000", "152001.440000", "152002.930000", "152004.420000", "152005.910000", "152007.400000", "152008.890000", "152010.380000", "152011.870000", "152013.360000", "152014.850000", "152016.340000", "152017.830000", "152019.320000", "152020.810000", "152022.300000", "152023.790000", "152025.280000", "152026.770000", "152028.260000", "152029.750000", "152031.240000", "152032.730000", "152034.220000", "152035.710000", "152037.200000", "152038.690000", "152040.180000", "152041.670000", "152043.160000", "152044.650000", "152046.140000", "152047.630000", "152049.120000", "152050.610000", "152052.100000", "152053.590000", "152055.080000", "152056.570000", "152058.060000", "152059.550000", "152101.040000", "152102.530000", "152104.020000", "152105.510000", "152107.000000", "152108.490000", "152109.980000", "152111.470000", "152112.960000", "152114.450000", "152115.940000", "152117.430000", "152118.920000", "152120.410000", "152121.900000", "152123.390000", "152124.880000", "152126.370000", "152127.860000", "152129.350000", "152130.840000", "152132.330000", "152133.820000", "152135.310000", "152136.800000", "152138.290000", "152139.780000", "152141.270000", "152142.760000", "152144.250000", "152145.740000", "152147.230000", "152148.720000", "152150.210000", "152151.700000", "152153.190000", "152154.680000", "152156.170000", "152157.660000", "152159.150000", "152200.640000", "152202.130000", "152203.620000", "152205.110000", "152206.600000", "152208.090000", "152209.580000", "152211.070000", "152212.560000", "152214.050000", "152215.540000", "152217.030000", "152218.520000", "152220.010000", "152221.500000", "152222.990000", "152224.480000", "152225.970000", "152227.460000", "152228.950000", "152230.440000", "152231.930000", "152233.420000", "152234.910000", "152236.400000", "152237.890000", "152239.380000", "152240.870000", "152242.360000", "152243.850000", "152245.340000", "152246.830000", "152248.320000", "152249.810000", "152251.300000", "152252.790000", "152254.280000", "152255.770000", "152257.260000", "152258.750000", "152300.240000", "152301.730000", "152303.220000", "152304.710000", "152306.200000", "152307.690000", "152309.180000", "152310.670000", "152312.160000", "152313.650000", "152315.140000", "152316.630000", "152318.120000", "152319.610000", "152321.100000", "152322.590000", "152324.080000", "152325.570000", "152327.060000", "152328.550000", "152330.040000"],
      "ContentTime": ["151357.544000", "151357.547000", "151357.550000", "151357.553000", "151357.560000", "151357.562000", "151357.565000", "151357.577000", "151357.580000", "151357.583000", "151357.585000", "151357.588000", "151357.591000", "151357.594000", "151357.597000", "151357.600000", "151357.603000", "151357.605000", "151357.608000", "151357.611000", "151357.614000", "151357.617000", "151357.620000", "151357.624000", "151357.627000", "151357.630000", "151357.633000", "151357.636000", "151357.639000", "151357.642000", "151417.515000", "151417.518000", "151417.521000", "151417.524000", "151417.526000", "151417.529000", "151417.532000", "151417.535000", "151417.538000", "151417.541000", "151417.544000", "151417.546000", "151417.549000", "151417.552000", "151417.555000", "151417.558000", "151417.561000", "151417.564000", "151417.567000", "151417.569000", "151437.515000", "151437.518000", "151437.521000", "151437.524000", "151437.526000", "151437.529000", "151437.532000", "151437.535000", "151437.538000", "151437.541000", "151437.544000", "151437.546000", "151437.549000", "151437.552000", "151437.555000", "151437.558000", "151437.561000", "151437.564000", "151437.567000", "151437.569000", "151457.515000", "151457.518000", "151457.521000", "151457.524000", "151457.526000", "151457.529000", "151457.532000", "151457.535000", "151457.538000", "151457.553000", "151457.556000", "151457.559000", "151457.562000", "151457.565000", "151457.568000", "151457.571000", "151457.573000", "151457.576000", "151457.579000", "151457.582000", "151537.515000", "151537.518000", "151537.521000", "151537.524000", "151537.527000", "151537.529000", "151537.532000", "151537.535000", "151537.538000", "151537.541000", "151537.544000", "151537.547000", "151537.550000", "151537.552000", "151537.555000", "151537.558000", "151537.561000", "151537.564000", "151537.567000", "151537.570000", "151537.573000", "151537.576000", "151537.579000", "151537.582000", "151537.584000", "151537.587000", "151537.590000", "151537.593000", "151537.596000", "151537.599000", "151537.602000", "151537.605000", "151537.607000", "151617.515000", "151617.518000", "151617.521000", "151617.523000", "151617.526000", "151617.529000", "151617.532000", "151617.535000", "151617.538000", "151617.541000", "151617.544000", "151617.546000", "151617.549000", "151617.552000", "151617.555000", "151617.558000", "151617.561000", "151617.564000", "151617.566000", "151617.569000", "151617.572000", "151617.575000", "151617.578000", "151617.581000", "151617.584000", "151617.587000", "151617.589000", "151657.515000", "151657.518000", "151657.521000", "151657.532000", "151657.535000", "151657.537000", "151657.540000", "151657.543000", "151657.546000", "151657.549000", "151657.552000", "151657.555000", "151657.558000", "151657.560000", "151657.563000", "151657.566000", "151657.569000", "151657.572000", "151657.575000", "151657.578000", "151657.581000", "151657.584000", "151657.586000", "151657.589000", "151657.592000", "151657.603000", "151657.605000", "151737.515000", "151737.518000", "151737.521000", "151737.524000", "151737.527000", "151737.529000", "151737.532000", "151737.535000", "151737.538000", "151737.541000", "151737.544000", "151737.547000", "151737.550000", "151737.554000", "151737.557000", "151737.559000", "151737.562000", "151737.565000", "151737.568000", "151737.571000", "151737.574000", "151737.577000", "151737.580000", "151737.583000", "151737.585000", "151737.588000", "151817.516000", "151817.519000", "151817.522000", "151817.525000", "151817.528000", "151817.530000", "151817.533000", "151817.536000", "151817.539000", "151817.542000", "151817.545000", "151817.548000", "151817.551000", "151817.554000", "151817.556000", "151817.571000", "151817.574000", "151817.577000", "151817.580000", "151817.583000", "151817.586000", "151817.588000", "151817.591000", "151817.594000", "151817.597000", "151817.600000", "151817.603000", "151857.515000", "151857.518000", "151857.521000", "151857.524000", "151857.527000", "151857.530000", "151857.532000", "151857.536000", "151857.538000", "151857.541000", "151857.544000", "151857.547000", "151857.550000", "151857.553000", "151857.556000", "151857.559000", "151857.561000", "151857.564000", "151857.567000", "151857.570000", "151857.573000", "151857.576000", "151857.579000", "151857.582000", "151857.585000", "151857.588000", "151857.590000", "151937.515000", "151937.518000", "151937.521000", "151937.524000", "151937.527000", "151937.530000", "151937.533000", "151937.535000", "151937.538000", "151937.541000", "151937.544000", "151937.547000", "151937.550000", "151937.553000", "151937.556000", "151937.558000", "151937.561000", "151937.564000", "151937.567000", "151937.570000", "151937.573000", "151937.576000", "151937.579000", "151937.582000", "151937.603000", "151937.606000", "151937.609000", "152017.515000", "152017.518000", "152017.521000", "152017.524000", "152017.527000", "152017.530000", "152017.532000", "152017.535000", "152017.538000", "152017.541000", "152017.544000", "152017.547000", "152017.550000", "152017.553000", "152017.556000", "152017.558000", "152017.561000", "152017.564000", "152017.567000", "152017.570000", "152017.573000", "152017.576000", "152017.579000", "152017.582000", "152017.585000", "152017.588000", "152017.590000", "152037.516000", "152037.519000", "152037.522000", "152037.525000", "152037.528000", "152037.531000", "152037.533000", "152037.536000", "152037.539000", "152037.542000", "152037.545000", "152037.548000", "152037.551000", "152117.515000", "152117.518000", "152117.521000", "152117.524000", "152117.527000", "152117.530000", "152117.533000", "152117.535000", "152117.538000", "152117.541000", "152117.544000", "152117.547000", "152117.550000", "152117.553000", "152117.556000", "152117.558000", "152117.561000", "152117.564000", "152117.567000", "152117.570000", "152117.573000", "152117.576000", "152117.579000", "152117.582000", "152117.584000", "152117.587000", "152117.590000", "152157.515000", "152157.518000", "152157.521000", "152157.524000", "152157.527000", "152157.530000", "152157.532000", "152157.535000", "152157.538000", "152157.541000", "152157.544000", "152157.547000", "152157.550000", "152157.553000", "152157.555000", "152157.558000", "152157.561000", "152157.564000", "152157.567000", "152157.570000", "152157.573000", "152157.576000", "152157.579000", "152157.581000", "152157.585000", "152157.587000", "152157.590000", "152237.515000", "152237.518000", "152237.521000", "152237.524000", "152237.527000", "152237.529000", "152237.532000", "152237.535000", "152237.538000", "152237.541000", "152237.544000", "152237.547000", "152237.550000", "152237.553000", "152237.555000", "152237.558000", "152237.561000", "152237.564000", "152237.567000", "152237.570000", "152237.573000", "152237.576000", "152237.579000", "152237.582000", "152237.585000", "152237.587000", "152237.590000", "152317.515000", "152317.518000", "152317.521000", "152317.524000", "152317.527000", "152317.529000", "152317.532000", "152317.535000", "152317.538000", "152317.541000", "152317.544000", "152317.547000", "152317.550000", "152317.553000", "152317.556000", "152317.559000", "152317.561000", "152317.564000", "152317.567000", "152317.570000", "152317.573000", "152317.576000", "152317.579000", "152317.582000", "152317.585000", "152317.587000", "152317.590000", "152333.394000", "152333.397000", "152333.400000", "152333.403000", "152333.406000", "152333.409000", "152333.412000", "152333.415000", "152333.418000", "152333.420000"],
