{
  "AcquisitionMatrixPE": 104,
  "AcquisitionNumber": 1,
  "AcquisitionTime": "14:54:14.980000",
  "BandwidthPerPixelPhaseEncode": 17.17,
  "BaseResolution": 104,
  "BodyPartExamined": "BRAIN",
  "CoilString": "HC1-7;NC1_2",
  "ConsistencyInfo": "N4_VE11C_LATEST_20160120",
  "ConversionSoftware": "dcm2niix",
  "ConversionSoftwareVersion": "v1.0.20200427",
  "DerivedVendorReportedEchoSpacing": 0.000560011,
  "DeviceSerialNumber": "167006",
  "DwellTime": 2.1e-06,
  "EchoTime": 0.037,
  "EchoTrainLength": 104,
  "EffectiveEchoSpacing": 0.000560011,
  "FlipAngle": 52,
  "ImageComments": "Unaliased_MB4_PE3_LB",
  "ImageOrientationPatientDICOM": [0.999491, -0.000121169, 0.031891, 0.0176207, 0.83559, -0.549071],
  "ImageType": [
    "ORIGINAL",
    "PRIMARY",
    "M",
    "MB",
    "ND",
    "MOSAIC"
],
  "ImagingFrequency": 123.259,
  "InPlanePhaseEncodingDirectionDICOM": "COL",
  "InstitutionAddress": "Chemin_Queen-Mary_4565_Montreal_District_CA_H3W_1W5",
  "InstitutionName": "IUGM",
  "InstitutionalDepartmentName": "Department",
  "MRAcquisitionType": "2D",
  "MagneticFieldStrength": 3,
  "Manufacturer": "Siemens",
  "ManufacturersModelName": "Prisma_fit",
  "Modality": "MR",
  "MultibandAccelerationFactor": 4,
  "PartialFourier": 1,
  "PatientPosition": "HFS",
  "PercentPhaseFOV": 100,
  "PercentSampling": 100,
  "PhaseEncodingDirection": "j",
  "PhaseEncodingSteps": 104,
  "PhaseResolution": 1,
  "PixelBandwidth": 2290,
  "ProcedureStepDescription": "games_shinobi",
  "ProtocolName": "func_task-shinobi_run-1",
  "PulseSequenceDetails": "%CustomerSeq%_cmrr_mbep2d_bold",
  "ReceiveCoilActiveElements": "HC1-7;NC1,2",
  "ReceiveCoilName": "HeadNeck_64",
  "ReconMatrixPE": 104,
  "RepetitionTime": 1.49,
  "SAR": 0.028851,
  "ScanOptions": "FS",
  "ScanningSequence": "EP",
  "SequenceName": "epfid2d1_104",
  "SequenceVariant": "SK_SS",
  "SeriesDescription": "func_task-shinobi_run-1",
  "SeriesNumber": 9,
  "ShimSetting": [623, -7177, -8896, 390, -23, -181, -11, -28],
  "SliceThickness": 2,
  "SliceTiming": [0, 0.785, 0.0975, 0.8825, 0.195, 0.98, 0.295, 1.0775, 0.3925, 1.175, 0.49, 1.275, 0.5875, 1.3725, 0.685, 0, 0.785, 0.0975, 0.8825, 0.195, 0.98, 0.295, 1.0775, 0.3925, 1.175, 0.49, 1.275, 0.5875, 1.3725, 0.685, 0, 0.785, 0.0975, 0.8825, 0.195, 0.98, 0.295, 1.0775, 0.3925, 1.175, 0.49, 1.275, 0.5875, 1.3725, 0.685, 0, 0.785, 0.0975, 0.8825, 0.195, 0.98, 0.295, 1.0775, 0.3925, 1.175, 0.49, 1.275, 0.5875, 1.3725, 0.685],
  "SoftwareVersions": "syngo_MR_E11",
  "SpacingBetweenSlices": 2,
  "StationName": "MRC35049",
  "TaskName": "shinobi",
  "TotalReadoutTime": 0.0576811,
  "TxRefAmp": 236.128,
  "WipMemBlock": "ae9228c3-cebb-458c-95de-8f2f30511094||Sequence: R016 ve11c/master r/e634e98; Dec 19 2017 11:00:25 by eja",
  "dcmmeta_affine": [
    [-1.9989826679229736, 0.03524130582809448, 0.0531625859439373, 103.8489761352539],
    [0.00024233887961599976, 1.6711797714233398, -1.0987074375152588, -47.427757263183594],
    [0.06378205865621567, 1.098142147064209, 1.670333981513977, -115.99068450927734],
    [0.0, 0.0, 0.0, 1.0]
],
  "dcmmeta_reorient_transform": [
    [0.0, -1.0, 0.0, 103.0],
    [1.0, 0.0, 0.0, 0.0],
    [0.0, 0.0, 1.0, 0.0],
    [0.0, 0.0, 0.0, 1.0]
],
  "dcmmeta_shape": [104, 104, 60, 605],
  "dcmmeta_slice_dim": 2,
  "dcmmeta_version": 0.6,
  "global": {
    "const": {
      "AcquisitionMatrix": [104, 0, 0, 104],
      "AngioFlag": "N",
      "BitsAllocated": 16,
      "BitsStored": 16,
      "BodyPartExamined": "BRAIN",
      "Columns": 832,
      "EchoNumbers": 1,
      "EchoTime": 37.0,
      "EchoTrainLength": 104,
      "FlipAngle": 52.0,
      "HighBit": 15,
      "ImageOrientationPatient": [0.99949134436416, -0.0001211694407, 0.03189103101322, 0.01762065291668, 0.83558990349775, -0.5490710571168],
      "ImagePositionPatient": [-847.93636520171, -732.92500062093, 373.62501569649],
      "ImageType": [
        "ORIGINAL",
        "PRIMARY",
        "M",
        "MB",
        "ND",
        "MOSAIC"
],
      "ImagedNucleus": "1H",
      "ImagingFrequency": 123.259072,
      "InPlanePhaseEncodingDirection": "COL",
      "MRAcquisitionType": "2D",
      "MagneticFieldStrength": 3.0,
      "Manufacturer": "SIEMENS",
      "ManufacturerModelName": "Prisma_fit",
      "Modality": "MR",
      "NumberOfAverages": 1.0,
      "NumberOfPhaseEncodingSteps": 104,
      "PercentPhaseFieldOfView": 100.0,
      "PercentSampling": 100.0,
      "PerformedProcedureStepStartTime": "143329.920000",
      "PhotometricInterpretation": "MONOCHROME2",
      "PixelBandwidth": 2290.0,
      "PixelRepresentation": 0,
      "PixelSpacing": [2.0, 2.0],
      "ProtocolName": "func_task-shinobi_run-1",
      "RepetitionTime": 1490.0,
      "Rows": 832,
      "SAR": 0.02885098752065,
      "SamplesPerPixel": 1,
      "ScanOptions": "FS",
      "ScanningSequence": "EP",
      "SequenceName": "epfid2d1_104",
      "SequenceVariant": [
        "SK",
        "SS"
],
      "SeriesDescription": "func_task-shinobi_run-1",
      "SeriesNumber": 9,
      "SeriesTime": "145539.071000",
      "SliceLocation": -68.056535610793,
      "SliceThickness": 2.0,
      "SmallestImagePixelValue": 0,
      "SoftwareVersions": "syngo MR E11",
      "SpacingBetweenSlices": 1.9999999947092,
      "SpecificCharacterSet": "ISO_IR 100",
      "StudyID": "1",
      "StudyTime": "143329.778000",
      "TransmitCoilName": "Body",
      "VariableFlipAngleFlag": "N",
      "WindowCenterWidthExplanation": "Algo1",
      "dBdt": 0.0},
    "slices": {}
  },
  "time": {
    "samples": {
      "AcquisitionNumber": [1, 2, 3, 4, 5, 6, 7, 8, 9, 10, 11, 12, 13, 14, 15, 16, 17, 18, 19, 20, 21, 22, 23, 24, 25, 26, 27, 28, 29, 30, 31, 32, 33, 34, 35, 36, 37, 38, 39, 40, 41, 42, 43, 44, 45, 46, 47, 48, 49, 50, 51, 52, 53, 54, 55, 56, 57, 58, 59, 60, 61, 62, 63, 64, 65, 66, 67, 68, 69, 70, 71, 72, 73, 74, 75, 76, 77, 78, 79, 80, 81, 82, 83, 84, 85, 86, 87, 88, 89, 90, 91, 92, 93, 94, 95, 96, 97, 98, 99, 100, 101, 102, 103, 104, 105, 106, 107, 108, 109, 110, 111, 112, 113, 114, 115, 116, 117, 118, 119, 120, 121, 122, 123, 124, 125, 126, 127, 128, 129, 130, 131, 132, 133, 134, 135, 136, 137, 138, 139, 140, 141, 142, 143, 144, 145, 146, 147, 148, 149, 150, 151, 152, 153, 154, 155, 156, 157, 158, 159, 160, 161, 162, 163, 164, 165, 166, 167, 168, 169, 170, 171, 172, 173, 174, 175, 176, 177, 178, 179, 180, 181, 182, 183, 184, 185, 186, 187, 188, 189, 190, 191, 192, 193, 194, 195, 196, 197, 198, 199, 200, 201, 202, 203, 204, 205, 206, 207, 208, 209, 210, 211, 212, 213, 214, 215, 216, 217, 218, 219, 220, 221, 222, 223, 224, 225, 226, 227, 228, 229, 230, 231, 232, 233, 234, 235, 236, 237, 238, 239, 240, 241, 242, 243, 244, 245, 246, 247, 248, 249, 250, 251, 252, 253, 254, 255, 256, 257, 258, 259, 260, 261, 262, 263, 264, 265, 266, 267, 268, 269, 270, 271, 272, 273, 274, 275, 276, 277, 278, 279, 280, 281, 282, 283, 284, 285, 286, 287, 288, 289, 290, 291, 292, 293, 294, 295, 296, 297, 298, 299, 300, 301, 302, 303, 304, 305, 306, 307, 308, 309, 310, 311, 312, 313, 314, 315, 316, 317, 318, 319, 320, 321, 322, 323, 324, 325, 326, 327, 328, 329, 330, 331, 332, 333, 334, 335, 336, 337, 338, 339, 340, 341, 342, 343, 344, 345, 346, 347, 348, 349, 350, 351, 352, 353, 354, 355, 356, 357, 358, 359, 360, 361, 362, 363, 364, 365, 366, 367, 368, 369, 370, 371, 372, 373, 374, 375, 376, 377, 378, 379, 380, 381, 382, 383, 384, 385, 386, 387, 388, 389, 390, 391, 392, 393, 394, 395, 396, 397, 398, 399, 400, 401, 402, 403, 404, 405, 406, 407, 408, 409, 410, 411, 412, 413, 414, 415, 416, 417, 418, 419, 420, 421, 422, 423, 424, 425, 426, 427, 428, 429, 430, 431, 432, 433, 434, 435, 436, 437, 438, 439, 440, 441, 442, 443, 444, 445, 446, 447, 448, 449, 450, 451, 452, 453, 454, 455, 456, 457, 458, 459, 460, 461, 462, 463, 464, 465, 466, 467, 468, 469, 470, 471, 472, 473, 474, 475, 476, 477, 478, 479, 480, 481, 482, 483, 484, 485, 486, 487, 488, 489, 490, 491, 492, 493, 494, 495, 496, 497, 498, 499, 500, 501, 502, 503, 504, 505, 506, 507, 508, 509, 510, 511, 512, 513, 514, 515, 516, 517, 518, 519, 520, 521, 522, 523, 524, 525, 526, 527, 528, 529, 530, 531, 532, 533, 534, 535, 536, 537, 538, 539, 540, 541, 542, 543, 544, 545, 546, 547, 548, 549, 550, 551, 552, 553, 554, 555, 556, 557, 558, 559, 560, 561, 562, 563, 564, 565, 566, 567, 568, 569, 570, 571, 572, 573, 574, 575, 576, 577, 578, 579, 580, 581, 582, 583, 584, 585, 586, 587, 588, 589, 590, 591, 592, 593, 594, 595, 596, 597, 598, 599, 600, 601, 602, 603, 604, 605],
      "AcquisitionTime": ["145414.980000", "145416.470000", "145417.960000", "145419.450000", "145420.940000", "145422.430000", "145423.920000", "145425.410000", "145426.900000", "145428.390000", "145429.880000", "145431.370000", "145432.860000", "145434.350000", "145435.840000", "145437.330000", "145438.820000", "145440.310000", "145441.800000", "145443.290000", "145444.780000", "145446.270000", "145447.760000", "145449.250000", "145450.740000", "145452.230000", "145453.720000", "145455.210000", "145456.700000", "145458.190000", "145459.680000", "145501.170000", "145502.660000", "145504.150000", "145505.640000", "145507.130000", "145508.620000", "145510.110000", "145511.600000", "145513.090000", "145514.580000", "145516.070000", "145517.560000", "145519.050000", "145520.540000", "145522.030000", "145523.520000", "145525.010000", "145526.500000", "145527.990000", "145529.480000", "145530.970000", "145532.460000", "145533.950000", "145535.440000", "145536.930000", "145538.420000", "145539.910000", "145541.400000", "145542.890000", "145544.380000", "145545.870000", "145547.360000", "145548.850000", "145550.340000", "145551.830000", "145553.320000", "145554.810000", "145556.300000", "145557.790000", "145559.280000", "145600.770000", "145602.260000", "145603.750000", "145605.240000", "145606.730000", "145608.220000", "145609.710000", "145611.200000", "145612.690000", "145614.180000", "145615.670000", "145617.160000", "145618.650000", "145620.140000", "145621.630000", "145623.120000", "145624.610000", "145626.100000", "145627.590000", "145629.080000", "145630.570000", "145632.060000", "145633.550000", "145635.040000", "145636.530000", "145638.020000", "145639.510000", "145641.000000", "145642.490000", "145643.980000", "145645.470000", "145646.960000", "145648.450000", "145649.940000", "145651.430000", "145652.920000", "145654.410000", "145655.900000", "145657.390000", "145658.880000", "145700.370000", "145701.860000", "145703.350000", "145704.840000", "145706.330000", "145707.820000", "145709.310000", "145710.800000", "145712.290000", "145713.780000", "145715.270000", "145716.760000", "145718.250000", "145719.740000", "145721.230000", "145722.720000", "145724.210000", "145725.700000", "145727.190000", "145728.680000", "145730.170000", "145731.660000", "145733.150000", "145734.640000", "145736.130000", "145737.620000", "145739.110000", "145740.600000", "145742.090000", "145743.580000", "145745.070000", "145746.560000", "145748.050000", "145749.540000", "145751.030000", "145752.520000", "145754.010000", "145755.500000", "145756.990000", "145758.480000", "145759.970000", "145801.460000", "145802.950000", "145804.440000", "145805.930000", "145807.420000", "145808.910000", "145810.400000", "145811.890000", "145813.380000", "145814.870000", "145816.360000", "145817.850000", "145819.340000", "145820.830000", "145822.320000", "145823.810000", "145825.300000", "145826.790000", "145828.280000", "145829.770000", "145831.260000", "145832.750000", "145834.240000", "145835.730000", "145837.220000", "145838.710000", "145840.200000", "145841.690000", "145843.180000", "145844.670000", "145846.160000", "145847.650000", "145849.140000", "145850.630000", "145852.120000", "145853.610000", "145855.100000", "145856.590000", "145858.080000", "145859.570000", "145901.060000", "145902.550000", "145904.040000", "145905.530000", "145907.020000", "145908.510000", "145910.000000", "145911.490000", "145912.980000", "145914.470000", "145915.960000", "145917.450000", "145918.940000", "145920.430000", "145921.920000", "145923.410000", "145924.900000", "145926.390000", "145927.880000", "145929.370000", "145930.860000", "145932.350000", "145933.840000", "145935.330000", "145936.820000", "145938.310000", "145939.800000", "145941.290000", "145942.780000", "145944.270000", "145945.760000", "145947.250000", "145948.740000", "145950.230000", "145951.720000", "145953.210000", "145954.700000", "145956.190000", "145957.680000", "145959.170000", "150000.660000", "150002.150000", "150003.640000", "150005.130000", "150006.620000", "150008.110000", "150009.600000", "150011.090000", "150012.580000", "150014.070000", "150015.560000", "150017.050000", "150018.540000", "150020.030000", "150021.520000", "150023.010000", "150024.500000", "150025.990000", "150027.480000", "150028.970000", "150030.460000", "150031.950000", "150033.440000", "150034.930000", "150036.420000", "150037.910000", "150039.400000", "150040.890000", "150042.380000", "150043.870000", "150045.360000", "150046.850000", "150048.340000", "150049.830000", "150051.320000", "150052.810000", "150054.300000", "150055.790000", "150057.280000", "150058.770000", "150100.260000", "150101.750000", "150103.240000", "150104.730000", "150106.220000", "150107.710000", "150109.200000", "150110.690000", "150112.180000", "150113.670000", "150115.160000", "150116.650000", "150118.140000", "150119.630000", "150121.120000", "150122.610000", "150124.100000", "150125.590000", "150127.080000", "150128.570000", "150130.060000", "150131.550000", "150133.040000", "150134.530000", "150136.020000", "150137.510000", "150139.000000", "150140.490000", "150141.980000", "150143.470000", "150144.960000", "150146.450000", "150147.940000", "150149.430000", "150150.920000", "150152.410000", "150153.900000", "150155.390000", "150156.880000", "150158.370000", "150159.860000", "150201.350000", "150202.840000", "150204.330000", "150205.820000", "150207.310000", "150208.800000", "150210.290000", "150211.780000", "150213.270000", "150214.760000", "150216.250000", "150217.740000", "150219.230000", "150220.720000", "150222.210000", "150223.700000", "150225.190000", "150226.680000", "150228.170000", "150229.660000", "150231.150000", "150232.640000", "150234.130000", "150235.620000", "150237.110000", "150238.600000", "150240.090000", "150241.580000", "150243.070000", "150244.560000", "150246.050000", "150247.540000", "150249.030000", "150250.520000", "150252.010000", "150253.500000", "150254.990000", "150256.480000", "150257.970000", "150259.460000", "150300.950000", "150302.440000", "150303.930000", "150305.420000", "150306.910000", "150308.400000", "150309.890000", "150311.380000", "150312.870000", "150314.360000", "150315.850000", "150317.340000", "150318.830000", "150320.320000", "150321.810000", "150323.300000", "150324.790000", "150326.280000", "150327.770000", "150329.260000", "150330.750000", "150332.240000", "150333.730000", "150335.220000", "150336.710000", "150338.200000", "150339.690000", "150341.180000", "150342.670000", "150344.160000", "150345.650000", "150347.140000", "150348.630000", "150350.120000", "150351.610000", "150353.100000", "150354.590000", "150356.080000", "150357.570000", "150359.060000", "150400.550000", "150402.040000", "150403.530000", "150405.020000", "150406.510000", "150408.000000", "150409.490000", "150410.980000", "150412.470000", "150413.960000", "150415.450000", "150416.940000", "150418.430000", "150419.920000", "150421.410000", "150422.900000", "150424.390000", "150425.880000", "150427.370000", "150428.860000", "150430.350000", "150431.840000", "150433.330000", "150434.820000", "150436.310000", "150437.800000", "150439.290000", "150440.780000", "150442.270000", "150443.760000", "150445.250000", "150446.740000", "150448.230000", "150449.720000", "150451.210000", "150452.700000", "150454.190000", "150455.680000", "150457.170000", "150458.660000", "150500.150000", "150501.640000", "150503.130000", "150504.620000", "150506.110000", "150507.600000", "150509.090000", "150510.580000", "150512.070000", "150513.560000", "150515.050000", "150516.540000", "150518.030000", "150519.520000", "150521.010000", "150522.500000", "150523.990000", "150525.480000", "150526.970000", "150528.460000", "150529.950000", "150531.440000", "150532.930000", "150534.420000", "150535.910000", "150537.400000", "150538.890000", "150540.380000", "150541.870000", "150543.360000", "150544.850000", "150546.340000", "150547.830000", "150549.320000", "150550.810000", "150552.300000", "150553.790000", "150555.280000", "150556.770000", "150558.260000", "150559.750000", "150601.240000", "150602.730000", "150604.220000", "150605.710000", "150607.200000", "150608.690000", "150610.180000", "150611.670000", "150613.160000", "150614.650000", "150616.140000", "150617.630000", "150619.120000", "150620.610000", "150622.100000", "150623.590000", "150625.080000", "150626.570000", "150628.060000", "150629.550000", "150631.040000", "150632.530000", "150634.020000", "150635.510000", "150637.000000", "150638.490000", "150639.980000", "150641.470000", "150642.960000", "150644.450000", "150645.940000", "150647.430000", "150648.920000", "150650.410000", "150651.900000", "150653.390000", "150654.880000", "150656.370000", "150657.860000", "150659.350000", "150700.840000", "150702.330000", "150703.820000", "150705.310000", "150706.800000", "150708.290000", "150709.780000", "150711.270000", "150712.760000", "150714.250000", "150715.740000", "150717.230000", "150718.720000", "150720.210000", "150721.700000", "150723.190000", "150724.680000", "150726.170000", "150727.660000", "150729.150000", "150730.640000", "150732.130000", "150733.620000", "150735.110000", "150736.600000", "150738.090000", "150739.580000", "150741.070000", "150742.560000", "150744.050000", "150745.540000", "150747.030000", "150748.520000", "150750.010000", "150751.500000", "150752.990000", "150754.480000", "150755.970000", "150757.460000", "150758.950000", "150800.440000", "150801.930000", "150803.420000", "150804.910000", "150806.400000", "150807.890000", "150809.380000", "150810.870000", "150812.360000", "150813.850000", "150815.340000", "150816.830000", "150818.320000", "150819.810000", "150821.300000", "150822.790000", "150824.280000", "150825.770000", "150827.260000", "150828.750000", "150830.240000", "150831.730000", "150833.220000", "150834.710000", "150836.200000", "150837.690000", "150839.180000", "150840.670000", "150842.160000", "150843.650000", "150845.140000", "150846.630000", "150848.120000", "150849.610000", "150851.100000", "150852.590000", "150854.080000", "150855.570000", "150857.060000", "150858.550000", "150900.040000", "150901.530000", "150903.020000", "150904.510000", "150906.000000", "150907.490000", "150908.980000", "150910.470000", "150911.960000", "150913.450000", "150914.940000"],
      "ContentTime": ["145539.073000", "145539.077000", "145539.080000", "145539.083000", "145539.085000", "145539.088000", "145539.096000", "145539.099000", "145539.102000", "145539.105000", "145539.108000", "145539.111000", "145539.114000", "145539.116000", "145539.119000", "145539.122000", "145539.125000", "145539.132000", "145539.135000", "145539.138000", "145539.141000", "145539.144000", "145539.147000", "145539.150000", "145539.153000", "145539.156000", "145539.158000", "145539.161000", "145539.164000", "145619.045000", "145619.064000", "145619.067000", "145619.070000", "145619.073000", "145619.076000", "145619.079000", "145619.082000", "145619.084000", "145619.087000", "145619.090000", "145619.093000", "145619.096000", "145619.099000", "145619.102000", "145619.109000", "145619.112000", "145619.115000", "145619.118000", "145619.121000", "145619.124000", "145619.127000", "145619.130000", "145619.133000", "145619.136000", "145619.139000", "145619.142000", "145619.145000", "145619.147000", "145619.150000", "145619.153000", "145619.156000", "145619.159000", "145619.162000", "145619.165000", "145619.168000", "145619.171000", "145619.174000", "145619.176000", "145619.179000", "145639.044000", "145639.047000", "145639.050000", "145639.053000", "145639.056000", "145639.059000", "145639.061000", "145639.064000", "145639.067000", "145639.070000", "145639.073000", "145639.076000", "145639.079000", "145639.082000", "145639.085000", "145639.088000", "145639.091000", "145639.094000", "145639.096000", "145639.099000", "145659.044000", "145659.047000", "145659.050000", "145659.053000", "145659.056000", "145659.059000", "145659.062000", "145659.065000", "145659.068000", "145659.071000", "145659.073000", "145659.076000", "145659.079000", "145659.082000", "145659.085000", "145659.088000", "145659.091000", "145659.094000", "145659.097000", "145659.100000", "145739.045000", "145739.048000", "145739.051000", "145739.054000", "145739.057000", "145739.060000", "145739.063000", "145739.066000", "145739.069000", "145739.071000", "145739.074000", "145739.077000", "145739.090000", "145739.093000", "145739.096000", "145739.099000", "145739.102000", "145739.105000", "145739.108000", "145739.111000", "145739.114000", "145739.117000", "145739.119000", "145739.122000", "145739.125000", "145739.128000", "145739.131000", "145819.045000", "145819.048000", "145819.051000", "145819.054000", "145819.057000", "145819.060000", "145819.063000", "145819.065000", "145819.068000", "145819.071000", "145819.085000", "145819.088000", "145819.091000", "145819.094000", "145819.097000", "145819.099000", "145819.102000", "145819.105000", "145819.108000", "145819.111000", "145819.114000", "145819.117000", "145819.120000", "145819.123000", "145819.126000", "145819.129000", "145819.132000", "145859.044000", "145859.047000", "145859.050000", "145859.053000", "145859.056000", "145859.059000", "145859.062000", "145859.064000", "145859.067000", "145859.070000", "145859.073000", "145859.076000", "145859.079000", "145859.082000", "145859.085000", "145859.088000", "145859.091000", "145859.094000", "145859.097000", "145859.100000", "145859.103000", "145859.106000", "145859.108000", "145859.111000", "145859.114000", "145859.117000", "145859.120000", "145919.044000", "145919.047000", "145919.050000", "145919.053000", "145919.056000", "145919.059000", "145919.062000", "145919.065000", "145919.068000", "145919.070000", "145919.073000", "145919.076000", "145919.079000", "145959.045000", "145959.048000", "145959.051000", "145959.054000", "145959.057000", "145959.060000", "145959.063000", "145959.066000", "145959.069000", "145959.072000", "145959.075000", "145959.078000", "145959.081000", "145959.084000", "145959.087000", "145959.089000", "145959.092000", "145959.095000", "145959.098000", "145959.101000", "145959.104000", "145959.107000", "145959.110000", "145959.113000", "145959.116000", "145959.119000", "145959.122000", "150039.045000", "150039.048000", "150039.051000", "150039.054000", "150039.057000", "150039.060000", "150039.063000", "150039.066000", "150039.068000", "150039.071000", "150039.074000", "150039.077000", "150039.080000", "150039.083000", "150039.086000", "150039.089000", "150039.092000", "150039.095000", "150039.098000", "150039.101000", "150039.104000", "150039.107000", "150039.109000", "150039.112000", "150039.115000", "150039.118000", "150039.121000", "150119.044000", "150119.047000", "150119.050000", "150119.053000", "150119.056000", "150119.059000", "150119.062000", "150119.065000", "150119.068000", "150119.071000", "150119.074000", "150119.076000", "150119.079000", "150119.082000", "150119.085000", "150119.088000", "150119.091000", "150119.094000", "150119.097000", "150119.100000", "150119.103000", "150119.106000", "150119.109000", "150119.112000", "150119.115000", "150119.118000", "150119.121000", "150159.045000", "150159.048000", "150159.051000", "150159.054000", "150159.057000", "150159.060000", "150159.063000", "150159.066000", "150159.069000", "150159.072000", "150159.075000", "150159.077000", "150159.080000", "150159.083000", "150159.086000", "150159.089000", "150159.092000", "150159.095000", "150159.098000", "150159.101000", "150159.104000", "150159.107000", "150159.110000", "150159.113000", "150159.116000", "150159.119000", "150159.122000", "150239.045000", "150239.048000", "150239.051000", "150239.054000", "150239.057000", "150239.060000", "150239.063000", "150239.066000", "150239.069000", "150239.072000", "150239.075000", "150239.078000", "150239.080000", "150239.083000", "150239.086000", "150239.089000", "150239.092000", "150239.095000", "150239.098000", "150239.101000", "150239.104000", "150239.107000", "150239.110000", "150239.113000", "150239.116000", "150239.119000", "150239.122000", "150319.045000", "150319.048000", "150319.051000", "150319.054000", "150319.057000", "150319.060000", "150319.063000", "150319.066000", "150319.069000", "150319.072000", "150319.075000", "150319.078000", "150319.080000", "150319.083000", "150319.086000", "150319.089000", "150319.092000", "150319.095000", "150319.098000", "150319.101000", "150319.104000", "150319.107000", "150319.110000", "150319.113000", "150319.116000", "150319.119000", "150319.121000", "150359.044000", "150359.047000", "150359.050000", "150359.053000", "150359.056000", "150359.059000", "150359.062000", "150359.065000", "150359.068000", "150359.070000", "150359.073000", "150359.076000", "150359.079000", "150359.083000", "150359.086000", "150359.089000", "150359.092000", "150359.095000", "150359.098000", "150359.101000", "150359.104000", "150359.107000", "150359.110000", "150359.113000", "150359.115000", "150359.118000", "150439.045000", "150439.048000", "150439.051000", "150439.054000", "150439.057000", "150439.060000", "150439.063000", "150439.066000", "150439.069000", "150439.072000", "150439.075000", "150439.078000", "150439.080000", "150439.083000", "150439.086000", "150439.089000", "150439.092000", "150439.095000", "150439.098000", "150439.101000", "150439.104000", "150439.107000", "150439.110000", "150439.112000", "150439.115000", "150439.118000", "150439.121000", "150519.045000", "150519.048000", "150519.051000", "150519.054000", "150519.057000", "150519.060000", "150519.063000", "150519.066000", "150519.069000", "150519.071000", "150519.074000", "150519.077000", "150519.080000", "150519.083000", "150519.086000", "150519.089000", "150519.092000", "150519.095000", "150519.098000", "150519.101000", "150519.104000", "150519.107000", "150519.110000", "150519.113000", "150519.116000", "150519.119000", "150519.122000", "150559.044000", "150559.047000", "150559.050000", "150559.053000", "150559.056000", "150559.059000", "150559.062000", "150559.065000", "150559.068000", "150559.071000", "150559.074000", "150559.077000", "150559.080000", "150559.083000", "150559.086000", "150559.088000", "150559.091000", "150559.094000", "150559.097000", "150559.100000", "150559.110000", "150559.112000", "150559.115000", "150559.118000", "150559.121000", "150559.124000", "150559.127000", "150639.045000", "150639.048000", "150639.051000", "150639.054000", "150639.057000", "150639.060000", "150639.063000", "150639.066000", "150639.069000", "150639.072000", "150639.075000", "150639.077000", "150639.080000", "150639.083000", "150639.086000", "150639.089000", "150639.092000", "150639.095000", "150639.098000", "150639.101000", "150639.104000", "150639.107000", "150639.110000", "150639.113000", "150639.129000", "150639.132000", "150639.134000", "150719.045000", "150719.048000", "150719.051000", "150719.054000", "150719.057000", "150719.060000", "150719.063000", "150719.066000", "150719.069000", "150719.072000", "150719.075000", "150719.078000", "150719.081000", "150719.084000", "150719.086000", "150719.089000", "150719.092000", "150719.095000", "150719.098000", "150719.101000", "150719.104000", "150719.107000", "150719.110000", "150719.113000", "150719.116000", "150719.119000", "150719.122000", "150759.045000", "150759.048000", "150759.051000", "150759.054000", "150759.057000", "150759.060000", "150759.063000", "150759.066000", "150759.069000", "150759.072000", "150759.075000", "150759.078000", "150759.081000", "150759.084000", "150759.086000", "150759.089000", "150759.092000", "150759.095000", "150759.098000", "150759.101000", "150759.104000", "150759.107000", "150759.111000", "150759.114000", "150759.117000", "150759.120000", "150839.044000", "150839.047000", "150839.050000", "150839.053000", "150839.056000", "150839.059000", "150839.062000", "150839.065000", "150839.068000", "150839.071000", "150839.073000", "150839.076000", "150839.079000", "150839.082000", "150839.085000", "150839.088000", "150839.091000", "150839.094000", "150839.097000", "150839.100000", "150839.103000", "150839.106000", "150839.109000", "150839.112000", "150839.115000", "150839.118000", "150839.120000", "150916.634000", "150916.637000", "150916.640000", "150916.643000", "150916.646000", "150916.650000", "150916.652000", "150916.655000", "150916.658000", "150916.661000", "150916.664000", "150916.667000", "150916.670000", "150916.673000", "150916.676000", "150916.679000", "150916.682000", "150916.685000", "150916.688000", "150916.691000", "150916.694000", "150916.697000", "150916.700000", "150916.703000", "150916.706000", "150916.709000"],
