{
  "AcquisitionMatrixPE": 104,
  "AcquisitionNumber": 1,
  "AcquisitionTime": "11:03:56.775000",
  "BandwidthPerPixelPhaseEncode": 17.17,
  "BaseResolution": 104,
  "BodyPartExamined": "BRAIN",
  "CoilString": "HC1-7;NC1_2",
  "ConsistencyInfo": "N4_VE11C_LATEST_20160120",
  "ConversionSoftware": "dcm2niix",
  "ConversionSoftwareVersion": "v1.0.20190902",
  "DerivedVendorReportedEchoSpacing": 0.000560011,
  "DeviceSerialNumber": "167006",
  "DwellTime": 2.1e-06,
  "EchoTime": 0.037,
  "EchoTrainLength": 104,
  "EffectiveEchoSpacing": 0.000560011,
  "FlipAngle": 52,
  "ImageComments": "Unaliased_MB4_PE3_LB",
  "ImageOrientationPatientDICOM": [0.992386, 0.105481, 0.0635887, -0.0840307, 0.957309, -0.276582],
  "ImageType": [
    "ORIGINAL",
    "PRIMARY",
    "M",
    "MB",
    "ND",
    "MOSAIC"
],
  "ImagingFrequency": 123.259,
  "InPlanePhaseEncodingDirectionDICOM": "COL",
  "InstitutionAddress": "Chemin_Queen-Mary_4565_Montreal_District_CA_H3W_1W5",
  "InstitutionName": "IUGM",
  "InstitutionalDepartmentName": "Department",
  "MRAcquisitionType": "2D",
  "MagneticFieldStrength": 3,
  "Manufacturer": "Siemens",
  "ManufacturersModelName": "Prisma_fit",
  "Modality": "MR",
  "MultibandAccelerationFactor": 4,
  "PartialFourier": 1,
  "PatientPosition": "HFS",
  "PercentPhaseFOV": 100,
  "PhaseEncodingDirection": "j",
  "PhaseEncodingSteps": 104,
  "PhaseResolution": 1,
  "PixelBandwidth": 2290,
  "ProcedureStepDescription": "games_shinobi",
  "ProtocolName": "func_task-shinobi_run-4",
  "PulseSequenceDetails": "%CustomerSeq%_cmrr_mbep2d_bold",
  "ReceiveCoilActiveElements": "HC1-7;NC1,2",
  "ReceiveCoilName": "HeadNeck_64",
  "ReconMatrixPE": 104,
  "RepetitionTime": 1.49,
  "SAR": 0.0393399,
  "ScanOptions": "FS",
  "ScanningSequence": "EP",
  "SequenceName": "epfid2d1_104",
  "SequenceVariant": "SK_SS",
  "SeriesDescription": "func_task-shinobi_run-4",
  "SeriesNumber": 15,
  "ShimSetting": [636, -7221, -8824, 666, 101, -58, 84, -6],
  "SliceThickness": 2,
  "SliceTiming": [0, 0.785, 0.0975, 0.8825, 0.1975, 0.98, 0.295, 1.0775, 0.3925, 1.175, 0.49, 1.275, 0.5875, 1.3725, 0.6875, 0, 0.785, 0.0975, 0.8825, 0.1975, 0.98, 0.295, 1.0775, 0.3925, 1.175, 0.49, 1.275, 0.5875, 1.3725, 0.6875, 0, 0.785, 0.0975, 0.8825, 0.1975, 0.98, 0.295, 1.0775, 0.3925, 1.175, 0.49, 1.275, 0.5875, 1.3725, 0.6875, 0, 0.785, 0.0975, 0.8825, 0.1975, 0.98, 0.295, 1.0775, 0.3925, 1.175, 0.49, 1.275, 0.5875, 1.3725, 0.6875],
  "SoftwareVersions": "syngo_MR_E11",
  "SpacingBetweenSlices": 2,
  "StationName": "MRC35049",
  "TaskName": "shinobi",
  "TotalReadoutTime": 0.0576811,
  "TxRefAmp": 246.011,
  "WipMemBlock": "b88b5bc7-7108-4786-95e6-2a57a64ee007||Sequence: R016 ve11c/master r/e634e98; Dec 19 2017 11:00:25 by eja",
  "dcmmeta_affine": [
    [-1.9847722053527832, -0.16806145012378693, 0.18009667098522186, 109.77330780029297],
    [-0.21096298098564148, 1.9146186113357544, -0.5382657051086426, -53.46923828125],
    [0.12717735767364502, 0.5531643033027649, 1.9177682399749756, -56.403358459472656],
    [0.0, 0.0, 0.0, 1.0]
],
  "dcmmeta_reorient_transform": [
    [0.0, -1.0, 0.0, 103.0],
    [1.0, 0.0, 0.0, 0.0],
    [0.0, 0.0, 1.0, 0.0],
    [0.0, 0.0, 0.0, 1.0]
],
  "dcmmeta_shape": [104, 104, 60, 445],
  "dcmmeta_slice_dim": 2,
  "dcmmeta_version": 0.6,
  "global": {
    "const": {
      "AcquisitionMatrix": [104, 0, 0, 104],
      "AngioFlag": "N",
      "BitsAllocated": 16,
      "BitsStored": 16,
      "BodyPartExamined": "BRAIN",
      "Columns": 832,
      "EchoNumbers": 1,
      "EchoTime": 37.0,
      "EchoTrainLength": 104,
      "FlipAngle": 52.0,
      "HighBit": 15,
      "ImageOrientationPatient": [0.99238608117409, 0.10548149366491, 0.0635886812739, -0.0840307276405, 0.95730933124131, -0.2765821417419],
      "ImagePositionPatient": [-753.74567627088, -917.44820411494, 155.63180277696],
      "ImageType": [
        "ORIGINAL",
        "PRIMARY",
        "M",
        "MB",
        "ND",
        "MOSAIC"
],
      "ImagedNucleus": "1H",
      "ImagingFrequency": 123.259122,
      "InPlanePhaseEncodingDirection": "COL",
      "MRAcquisitionType": "2D",
      "MagneticFieldStrength": 3.0,
      "Manufacturer": "SIEMENS",
      "ManufacturerModelName": "Prisma_fit",
      "Modality": "MR",
      "NumberOfAverages": 1.0,
      "NumberOfPhaseEncodingSteps": 104,
      "PercentPhaseFieldOfView": 100.0,
      "PercentSampling": 100.0,
      "PerformedProcedureStepStartTime": "102243.405000",
      "PhotometricInterpretation": "MONOCHROME2",
      "PixelBandwidth": 2290.0,
      "PixelRepresentation": 0,
      "PixelSpacing": [2.0, 2.0],
      "ProtocolName": "func_task-shinobi_run-4",
      "RepetitionTime": 1490.0,
      "Rows": 832,
      "SAR": 0.03933985672345,
      "SamplesPerPixel": 1,
      "ScanOptions": "FS",
      "ScanningSequence": "EP",
      "SequenceName": "epfid2d1_104",
      "SequenceVariant": [
        "SK",
        "SS"
],
      "SeriesDescription": "func_task-shinobi_run-4",
      "SeriesNumber": 15,
      "SeriesTime": "110501.266000",
      "SliceLocation": -29.809052127155,
      "SliceThickness": 2.0,
      "SmallestImagePixelValue": 0,
      "SoftwareVersions": "syngo MR E11",
      "SpacingBetweenSlices": 2.0000000020982,
      "SpecificCharacterSet": "ISO_IR 100",
      "StudyID": "1",
      "StudyTime": "102243.329000",
      "TransmitCoilName": "Body",
      "VariableFlipAngleFlag": "N",
      "WindowCenterWidthExplanation": "Algo1",
      "dBdt": 0.0},
    "slices": {}
  },
  "time": {
    "samples": {
      "AcquisitionNumber": [1, 2, 3, 4, 5, 6, 7, 8, 9, 10, 11, 12, 13, 14, 15, 16, 17, 18, 19, 20, 21, 22, 23, 24, 25, 26, 27, 28, 29, 30, 31, 32, 33, 34, 35, 36, 37, 38, 39, 40, 41, 42, 43, 44, 45, 46, 47, 48, 49, 50, 51, 52, 53, 54, 55, 56, 57, 58, 59, 60, 61, 62, 63, 64, 65, 66, 67, 68, 69, 70, 71, 72, 73, 74, 75, 76, 77, 78, 79, 80, 81, 82, 83, 84, 85, 86, 87, 88, 89, 90, 91, 92, 93, 94, 95, 96, 97, 98, 99, 100, 101, 102, 103, 104, 105, 106, 107, 108, 109, 110, 111, 112, 113, 114, 115, 116, 117, 118, 119, 120, 121, 122, 123, 124, 125, 126, 127, 128, 129, 130, 131, 132, 133, 134, 135, 136, 137, 138, 139, 140, 141, 142, 143, 144, 145, 146, 147, 148, 149, 150, 151, 152, 153, 154, 155, 156, 157, 158, 159, 160, 161, 162, 163, 164, 165, 166, 167, 168, 169, 170, 171, 172, 173, 174, 175, 176, 177, 178, 179, 180, 181, 182, 183, 184, 185, 186, 187, 188, 189, 190, 191, 192, 193, 194, 195, 196, 197, 198, 199, 200, 201, 202, 203, 204, 205, 206, 207, 208, 209, 210, 211, 212, 213, 214, 215, 216, 217, 218, 219, 220, 221, 222, 223, 224, 225, 226, 227, 228, 229, 230, 231, 232, 233, 234, 235, 236, 237, 238, 239, 240, 241, 242, 243, 244, 245, 246, 247, 248, 249, 250, 251, 252, 253, 254, 255, 256, 257, 258, 259, 260, 261, 262, 263, 264, 265, 266, 267, 268, 269, 270, 271, 272, 273, 274, 275, 276, 277, 278, 279, 280, 281, 282, 283, 284, 285, 286, 287, 288, 289, 290, 291, 292, 293, 294, 295, 296, 297, 298, 299, 300, 301, 302, 303, 304, 305, 306, 307, 308, 309, 310, 311, 312, 313, 314, 315, 316, 317, 318, 319, 320, 321, 322, 323, 324, 325, 326, 327, 328, 329, 330, 331, 332, 333, 334, 335, 336, 337, 338, 339, 340, 341, 342, 343, 344, 345, 346, 347, 348, 349, 350, 351, 352, 353, 354, 355, 356, 357, 358, 359, 360, 361, 362, 363, 364, 365, 366, 367, 368, 369, 370, 371, 372, 373, 374, 375, 376, 377, 378, 379, 380, 381, 382, 383, 384, 385, 386, 387, 388, 389, 390, 391, 392, 393, 394, 395, 396, 397, 398, 399, 400, 401, 402, 403, 404, 405, 406, 407, 408, 409, 410, 411, 412, 413, 414, 415, 416, 417, 418, 419, 420, 421, 422, 423, 424, 425, 426, 427, 428, 429, 430, 431, 432, 433, 434, 435, 436, 437, 438, 439, 440, 441, 442, 443, 444, 445],
      "AcquisitionTime": ["110356.775000", "110358.265000", "110359.755000", "110401.245000", "110402.735000", "110404.225000", "110405.715000", "110407.205000", "110408.695000", "110410.185000", "110411.675000", "110413.165000", "110414.655000", "110416.145000", "110417.635000", "110419.125000", "110420.615000", "110422.105000", "110423.595000", "110425.085000", "110426.575000", "110428.065000", "110429.555000", "110431.045000", "110432.535000", "110434.025000", "110435.515000", "110437.005000", "110438.495000", "110439.985000", "110441.475000", "110442.965000", "110444.455000", "110445.945000", "110447.435000", "110448.925000", "110450.415000", "110451.905000", "110453.395000", "110454.885000", "110456.375000", "110457.865000", "110459.355000", "110500.845000", "110502.335000", "110503.825000", "110505.315000", "110506.805000", "110508.295000", "110509.785000", "110511.275000", "110512.765000", "110514.255000", "110515.745000", "110517.235000", "110518.725000", "110520.215000", "110521.705000", "110523.195000", "110524.685000", "110526.175000", "110527.665000", "110529.155000", "110530.645000", "110532.135000", "110533.625000", "110535.115000", "110536.605000", "110538.095000", "110539.585000", "110541.075000", "110542.565000", "110544.055000", "110545.545000", "110547.035000", "110548.525000", "110550.015000", "110551.505000", "110552.995000", "110554.485000", "110555.975000", "110557.465000", "110558.955000", "110600.445000", "110601.935000", "110603.425000", "110604.915000", "110606.405000", "110607.895000", "110609.385000", "110610.875000", "110612.365000", "110613.855000", "110615.345000", "110616.835000", "110618.325000", "110619.815000", "110621.305000", "110622.795000", "110624.285000", "110625.775000", "110627.265000", "110628.755000", "110630.245000", "110631.735000", "110633.225000", "110634.715000", "110636.205000", "110637.695000", "110639.185000", "110640.675000", "110642.165000", "110643.655000", "110645.145000", "110646.635000", "110648.125000", "110649.615000", "110651.105000", "110652.595000", "110654.085000", "110655.575000", "110657.065000", "110658.555000", "110700.045000", "110701.535000", "110703.025000", "110704.515000", "110706.005000", "110707.495000", "110708.985000", "110710.475000", "110711.965000", "110713.455000", "110714.945000", "110716.435000", "110717.925000", "110719.415000", "110720.905000", "110722.395000", "110723.885000", "110725.375000", "110726.865000", "110728.355000", "110729.845000", "110731.335000", "110732.825000", "110734.315000", "110735.805000", "110737.295000", "110738.785000", "110740.275000", "110741.765000", "110743.255000", "110744.745000", "110746.235000", "110747.725000", "110749.215000", "110750.705000", "110752.195000", "110753.685000", "110755.175000", "110756.665000", "110758.155000", "110759.645000", "110801.135000", "110802.625000", "110804.115000", "110805.605000", "110807.095000", "110808.585000", "110810.075000", "110811.565000", "110813.055000", "110814.545000", "110816.035000", "110817.525000", "110819.015000", "110820.505000", "110821.995000", "110823.485000", "110824.975000", "110826.465000", "110827.955000", "110829.445000", "110830.935000", "110832.425000", "110833.915000", "110835.405000", "110836.895000", "110838.385000", "110839.875000", "110841.365000", "110842.855000", "110844.345000", "110845.835000", "110847.325000", "110848.815000", "110850.305000", "110851.795000", "110853.285000", "110854.775000", "110856.265000", "110857.755000", "110859.245000", "110900.735000", "110902.225000", "110903.715000", "110905.205000", "110906.695000", "110908.185000", "110909.675000", "110911.165000", "110912.655000", "110914.145000", "110915.635000", "110917.125000", "110918.615000", "110920.105000", "110921.595000", "110923.085000", "110924.575000", "110926.065000", "110927.555000", "110929.045000", "110930.535000", "110932.025000", "110933.515000", "110935.005000", "110936.495000", "110937.985000", "110939.475000", "110940.965000", "110942.455000", "110943.945000", "110945.435000", "110946.925000", "110948.415000", "110949.905000", "110951.395000", "110952.885000", "110954.375000", "110955.865000", "110957.355000", "110958.845000", "111000.335000", "111001.825000", "111003.315000", "111004.805000", "111006.295000", "111007.785000", "111009.275000", "111010.765000", "111012.255000", "111013.745000", "111015.235000", "111016.725000", "111018.215000", "111019.705000", "111021.195000", "111022.685000", "111024.175000", "111025.665000", "111027.155000", "111028.645000", "111030.135000", "111031.625000", "111033.115000", "111034.605000", "111036.095000", "111037.585000", "111039.075000", "111040.565000", "111042.055000", "111043.545000", "111045.035000", "111046.525000", "111048.015000", "111049.505000", "111050.995000", "111052.485000", "111053.975000", "111055.465000", "111056.955000", "111058.445000", "111059.935000", "111101.425000", "111102.915000", "111104.405000", "111105.895000", "111107.385000", "111108.875000", "111110.365000", "111111.855000", "111113.345000", "111114.835000", "111116.325000", "111117.815000", "111119.305000", "111120.795000", "111122.285000", "111123.775000", "111125.265000", "111126.755000", "111128.245000", "111129.735000", "111131.225000", "111132.715000", "111134.205000", "111135.695000", "111137.185000", "111138.675000", "111140.165000", "111141.655000", "111143.145000", "111144.635000", "111146.125000", "111147.615000", "111149.105000", "111150.595000", "111152.085000", "111153.575000", "111155.065000", "111156.555000", "111158.045000", "111159.535000", "111201.025000", "111202.515000", "111204.005000", "111205.495000", "111206.985000", "111208.475000", "111209.965000", "111211.455000", "111212.945000", "111214.435000", "111215.925000", "111217.415000", "111218.905000", "111220.395000", "111221.885000", "111223.375000", "111224.865000", "111226.355000", "111227.845000", "111229.335000", "111230.825000", "111232.315000", "111233.805000", "111235.295000", "111236.785000", "111238.275000", "111239.765000", "111241.255000", "111242.745000", "111244.235000", "111245.725000", "111247.215000", "111248.705000", "111250.195000", "111251.685000", "111253.175000", "111254.665000", "111256.155000", "111257.645000", "111259.135000", "111300.625000", "111302.115000", "111303.605000", "111305.095000", "111306.585000", "111308.075000", "111309.565000", "111311.055000", "111312.545000", "111314.035000", "111315.525000", "111317.015000", "111318.505000", "111319.995000", "111321.485000", "111322.975000", "111324.465000", "111325.955000", "111327.445000", "111328.935000", "111330.425000", "111331.915000", "111333.405000", "111334.895000", "111336.385000", "111337.875000", "111339.365000", "111340.855000", "111342.345000", "111343.835000", "111345.325000", "111346.815000", "111348.305000", "111349.795000", "111351.285000", "111352.775000", "111354.265000", "111355.755000", "111357.245000", "111358.735000", "111400.225000", "111401.715000", "111403.205000", "111404.695000", "111406.185000", "111407.675000", "111409.165000", "111410.655000", "111412.145000", "111413.635000", "111415.125000", "111416.615000", "111418.105000", "111419.595000", "111421.085000", "111422.575000", "111424.065000", "111425.555000", "111427.045000", "111428.535000", "111430.025000", "111431.515000", "111433.005000", "111434.495000", "111435.985000", "111437.475000", "111438.965000", "111440.455000", "111441.945000", "111443.435000", "111444.925000", "111446.415000", "111447.905000", "111449.395000", "111450.885000", "111452.375000", "111453.865000", "111455.355000", "111456.845000", "111458.335000"],
      "ContentTime": ["110501.269000", "110501.272000", "110501.275000", "110501.278000", "110501.281000", "110501.284000", "110501.305000", "110501.308000", "110501.311000", "110501.314000", "110501.316000", "110521.254000", "110521.257000", "110521.266000", "110521.269000", "110521.271000", "110521.274000", "110521.277000", "110521.302000", "110521.305000", "110521.309000", "110521.312000", "110521.315000", "110521.318000", "110521.321000", "110521.324000", "110521.332000", "110521.335000", "110521.338000", "110521.340000", "110521.343000", "110541.241000", "110541.248000", "110541.252000", "110541.254000", "110541.257000", "110541.260000", "110541.263000", "110541.267000", "110541.270000", "110541.272000", "110541.276000", "110541.278000", "110541.281000", "110541.284000", "110541.287000", "110541.290000", "110541.293000", "110541.295000", "110541.298000", "110541.301000", "110601.241000", "110601.252000", "110601.255000", "110601.258000", "110601.261000", "110601.264000", "110601.266000", "110601.269000", "110601.272000", "110601.275000", "110601.278000", "110601.281000", "110601.284000", "110601.286000", "110601.289000", "110601.292000", "110601.295000", "110601.298000", "110601.301000", "110601.303000", "110601.306000", "110621.241000", "110621.244000", "110621.247000", "110621.249000", "110621.252000", "110621.255000", "110621.258000", "110621.261000", "110621.264000", "110621.266000", "110621.269000", "110621.272000", "110621.275000", "110621.278000", "110621.280000", "110621.283000", "110621.286000", "110621.289000", "110621.292000", "110621.295000", "110701.241000", "110701.244000", "110701.247000", "110701.250000", "110701.253000", "110701.255000", "110701.258000", "110701.261000", "110701.264000", "110701.267000", "110701.269000", "110701.272000", "110701.275000", "110701.278000", "110701.281000", "110701.284000", "110701.287000", "110701.290000", "110701.293000", "110701.295000", "110701.298000", "110701.301000", "110701.304000", "110701.307000", "110701.310000", "110701.312000", "110701.315000", "110701.318000", "110701.321000", "110701.324000", "110701.327000", "110741.240000", "110741.243000", "110741.246000", "110741.249000", "110741.252000", "110741.255000", "110741.262000", "110741.265000", "110741.268000", "110741.271000", "110741.274000", "110741.277000", "110741.280000", "110741.282000", "110741.285000", "110741.288000", "110741.291000", "110741.294000", "110741.297000", "110741.300000", "110741.303000", "110741.306000", "110741.308000", "110741.311000", "110741.314000", "110741.317000", "110821.241000", "110821.244000", "110821.247000", "110821.250000", "110821.253000", "110821.255000", "110821.258000", "110821.261000", "110821.264000", "110821.267000", "110821.269000", "110821.272000", "110821.280000", "110821.283000", "110821.285000", "110821.288000", "110821.291000", "110821.294000", "110821.297000", "110821.299000", "110821.302000", "110821.305000", "110821.308000", "110821.311000", "110821.314000", "110821.317000", "110821.319000", "110901.241000", "110901.244000", "110901.247000", "110901.250000", "110901.253000", "110901.256000", "110901.259000", "110901.261000", "110901.264000", "110901.267000", "110901.270000", "110901.273000", "110901.276000", "110901.279000", "110901.282000", "110901.285000", "110901.288000", "110901.291000", "110901.293000", "110901.296000", "110901.299000", "110901.302000", "110901.305000", "110901.308000", "110901.310000", "110901.313000", "110901.316000", "110941.240000", "110941.243000", "110941.246000", "110941.254000", "110941.264000", "110941.280000", "110941.282000", "110941.285000", "110941.299000", "110941.301000", "110941.304000", "110941.307000", "110941.310000", "110941.313000", "110941.316000", "110941.319000", "110941.322000", "110941.325000", "110941.327000", "110941.330000", "110941.333000", "110941.336000", "110941.339000", "110941.342000", "110941.345000", "110941.348000", "110941.350000", "111021.241000", "111021.244000", "111021.247000", "111021.258000", "111021.261000", "111021.264000", "111021.267000", "111021.270000", "111021.273000", "111021.275000", "111021.278000", "111021.281000", "111021.284000", "111021.287000", "111021.290000", "111021.293000", "111021.296000", "111021.299000", "111021.302000", "111021.305000", "111021.307000", "111021.310000", "111021.313000", "111021.316000", "111021.319000", "111021.322000", "111021.325000", "111101.241000", "111101.244000", "111101.247000", "111101.250000", "111101.253000", "111101.255000", "111101.258000", "111101.261000", "111101.264000", "111101.267000", "111101.270000", "111101.272000", "111101.275000", "111101.278000", "111101.281000", "111101.284000", "111101.286000", "111101.289000", "111101.292000", "111101.295000", "111101.298000", "111101.301000", "111101.304000", "111101.307000", "111101.310000", "111101.312000", "111101.315000", "111141.241000", "111141.244000", "111141.247000", "111141.250000", "111141.253000", "111141.256000", "111141.259000", "111141.262000", "111141.265000", "111141.268000", "111141.271000", "111141.274000", "111141.277000", "111141.280000", "111141.283000", "111141.286000", "111141.289000", "111141.295000", "111141.298000", "111141.301000", "111141.304000", "111141.307000", "111141.310000", "111141.312000", "111141.315000", "111141.318000", "111221.240000", "111221.243000", "111221.246000", "111221.249000", "111221.252000", "111221.255000", "111221.257000", "111221.260000", "111221.263000", "111221.266000", "111221.269000", "111221.272000", "111221.274000", "111221.277000", "111221.280000", "111221.283000", "111221.286000", "111221.289000", "111221.291000", "111221.294000", "111221.297000", "111221.300000", "111221.303000", "111221.306000", "111221.309000", "111221.311000", "111221.314000", "111301.241000", "111301.244000", "111301.247000", "111301.250000", "111301.253000", "111301.255000", "111301.258000", "111301.261000", "111301.264000", "111301.267000", "111301.270000", "111301.272000", "111301.275000", "111301.278000", "111301.281000", "111301.284000", "111301.287000", "111301.290000", "111301.299000", "111301.302000", "111301.305000", "111301.308000", "111301.311000", "111301.313000", "111301.316000", "111301.319000", "111301.322000", "111341.241000", "111341.244000", "111341.247000", "111341.250000", "111341.253000", "111341.255000", "111341.258000", "111341.261000", "111341.264000", "111341.267000", "111341.270000", "111341.272000", "111341.275000", "111341.278000", "111341.281000", "111341.284000", "111341.287000", "111341.297000", "111341.300000", "111341.303000", "111341.306000", "111341.309000", "111341.312000", "111341.315000", "111341.317000", "111341.320000", "111341.323000", "111401.250000", "111401.253000", "111401.256000", "111401.259000", "111401.262000", "111401.265000", "111401.267000", "111401.270000", "111401.273000", "111401.276000", "111401.279000", "111401.281000", "111401.284000", "111441.240000", "111441.243000", "111441.246000", "111441.249000", "111441.252000", "111441.255000", "111441.257000", "111441.260000", "111441.263000", "111441.266000", "111441.269000", "111441.272000", "111441.275000", "111441.277000", "111441.280000", "111441.283000", "111441.286000", "111441.289000", "111441.292000", "111441.295000", "111441.297000", "111441.300000", "111441.303000", "111441.306000", "111441.309000", "111441.312000", "111441.315000", "111501.251000", "111501.254000", "111501.257000", "111501.260000", "111501.263000", "111501.266000", "111501.269000", "111501.272000", "111501.274000", "111501.277000", "111501.280000", "111501.283000", "111501.286000", "111501.289000"],
