{
  "AcquisitionMatrixPE": 104,
  "AcquisitionNumber": 1,
  "AcquisitionTime": "11:15:34.930000",
  "BandwidthPerPixelPhaseEncode": 17.17,
  "BaseResolution": 104,
  "BodyPartExamined": "BRAIN",
  "CoilString": "HC1-7;NC1_2",
  "ConsistencyInfo": "N4_VE11C_LATEST_20160120",
  "ConversionSoftware": "dcm2niix",
  "ConversionSoftwareVersion": "v1.0.20190902",
  "DerivedVendorReportedEchoSpacing": 0.000560011,
  "DeviceSerialNumber": "167006",
  "DwellTime": 2.1e-06,
  "EchoTime": 0.037,
  "EchoTrainLength": 104,
  "EffectiveEchoSpacing": 0.000560011,
  "FlipAngle": 52,
  "ImageComments": "Unaliased_MB4_PE3_LB",
  "ImageOrientationPatientDICOM": [0.992386, 0.105481, 0.0635887, -0.0840307, 0.957309, -0.276582],
  "ImageType": [
    "ORIGINAL",
    "PRIMARY",
    "M",
    "MB",
    "ND",
    "MOSAIC"
],
  "ImagingFrequency": 123.259,
  "InPlanePhaseEncodingDirectionDICOM": "COL",
  "InstitutionAddress": "Chemin_Queen-Mary_4565_Montreal_District_CA_H3W_1W5",
  "InstitutionName": "IUGM",
  "InstitutionalDepartmentName": "Department",
  "MRAcquisitionType": "2D",
  "MagneticFieldStrength": 3,
  "Manufacturer": "Siemens",
  "ManufacturersModelName": "Prisma_fit",
  "Modality": "MR",
  "MultibandAccelerationFactor": 4,
  "PartialFourier": 1,
  "PatientPosition": "HFS",
  "PercentPhaseFOV": 100,
  "PhaseEncodingDirection": "j",
  "PhaseEncodingSteps": 104,
  "PhaseResolution": 1,
  "PixelBandwidth": 2290,
  "ProcedureStepDescription": "games_shinobi",
  "ProtocolName": "func_task-shinobi_run-5",
  "PulseSequenceDetails": "%CustomerSeq%_cmrr_mbep2d_bold",
  "ReceiveCoilActiveElements": "HC1-7;NC1,2",
  "ReceiveCoilName": "HeadNeck_64",
  "ReconMatrixPE": 104,
  "RepetitionTime": 1.49,
  "SAR": 0.0393399,
  "ScanOptions": "FS",
  "ScanningSequence": "EP",
  "SequenceName": "epfid2d1_104",
  "SequenceVariant": "SK_SS",
  "SeriesDescription": "func_task-shinobi_run-5",
  "SeriesNumber": 17,
  "ShimSetting": [636, -7221, -8824, 666, 101, -58, 84, -6],
  "SliceThickness": 2,
  "SliceTiming": [0, 0.7825, 0.0975, 0.8825, 0.195, 0.98, 0.2925, 1.0775, 0.3925, 1.175, 0.49, 1.2725, 0.5875, 1.3725, 0.685, 0, 0.7825, 0.0975, 0.8825, 0.195, 0.98, 0.2925, 1.0775, 0.3925, 1.175, 0.49, 1.2725, 0.5875, 1.3725, 0.685, 0, 0.7825, 0.0975, 0.8825, 0.195, 0.98, 0.2925, 1.0775, 0.3925, 1.175, 0.49, 1.2725, 0.5875, 1.3725, 0.685, 0, 0.7825, 0.0975, 0.8825, 0.195, 0.98, 0.2925, 1.0775, 0.3925, 1.175, 0.49, 1.2725, 0.5875, 1.3725, 0.685],
  "SoftwareVersions": "syngo_MR_E11",
  "SpacingBetweenSlices": 2,
  "StationName": "MRC35049",
  "TaskName": "shinobi",
  "TotalReadoutTime": 0.0576811,
  "TxRefAmp": 246.011,
  "WipMemBlock": "d8fb0178-2d8b-49f2-9eb3-98d75dab3964||Sequence: R016 ve11c/master r/e634e98; Dec 19 2017 11:00:25 by eja",
  "dcmmeta_affine": [
    [-1.9847722053527832, -0.16806145012378693, 0.18009667098522186, 109.77330780029297],
    [-0.21096298098564148, 1.9146186113357544, -0.5382657051086426, -53.46923828125],
    [0.12717735767364502, 0.5531643033027649, 1.9177682399749756, -56.403358459472656],
    [0.0, 0.0, 0.0, 1.0]
],
  "dcmmeta_reorient_transform": [
    [0.0, -1.0, 0.0, 103.0],
    [1.0, 0.0, 0.0, 0.0],
    [0.0, 0.0, 1.0, 0.0],
    [0.0, 0.0, 0.0, 1.0]
],
  "dcmmeta_shape": [104, 104, 60, 413],
  "dcmmeta_slice_dim": 2,
  "dcmmeta_version": 0.6,
  "global": {
    "const": {
      "AcquisitionMatrix": [104, 0, 0, 104],
      "AngioFlag": "N",
      "BitsAllocated": 16,
      "BitsStored": 16,
      "BodyPartExamined": "BRAIN",
      "Columns": 832,
      "EchoNumbers": 1,
      "EchoTime": 37.0,
      "EchoTrainLength": 104,
      "FlipAngle": 52.0,
      "HighBit": 15,
      "ImageOrientationPatient": [0.99238608117409, 0.10548149366491, 0.0635886812739, -0.0840307276405, 0.95730933124131, -0.2765821417419],
      "ImagePositionPatient": [-753.74567627088, -917.44820411494, 155.63180277696],
      "ImageType": [
        "ORIGINAL",
        "PRIMARY",
        "M",
        "MB",
        "ND",
        "MOSAIC"
],
      "ImagedNucleus": "1H",
      "ImagingFrequency": 123.259122,
      "InPlanePhaseEncodingDirection": "COL",
      "MRAcquisitionType": "2D",
      "MagneticFieldStrength": 3.0,
      "Manufacturer": "SIEMENS",
      "ManufacturerModelName": "Prisma_fit",
      "Modality": "MR",
      "NumberOfAverages": 1.0,
      "NumberOfPhaseEncodingSteps": 104,
      "PercentPhaseFieldOfView": 100.0,
      "PercentSampling": 100.0,
      "PerformedProcedureStepStartTime": "102243.405000",
      "PhotometricInterpretation": "MONOCHROME2",
      "PixelBandwidth": 2290.0,
      "PixelRepresentation": 0,
      "PixelSpacing": [2.0, 2.0],
      "ProtocolName": "func_task-shinobi_run-5",
      "RepetitionTime": 1490.0,
      "Rows": 832,
      "SAR": 0.03933985672345,
      "SamplesPerPixel": 1,
      "ScanOptions": "FS",
      "ScanningSequence": "EP",
      "SequenceName": "epfid2d1_104",
      "SequenceVariant": [
        "SK",
        "SS"
],
      "SeriesDescription": "func_task-shinobi_run-5",
      "SeriesNumber": 17,
      "SeriesTime": "111652.203000",
      "SliceLocation": -29.809052127155,
      "SliceThickness": 2.0,
      "SmallestImagePixelValue": 0,
      "SoftwareVersions": "syngo MR E11",
      "SpacingBetweenSlices": 2.0000000020982,
      "SpecificCharacterSet": "ISO_IR 100",
      "StudyID": "1",
      "StudyTime": "102243.329000",
      "TransmitCoilName": "Body",
      "VariableFlipAngleFlag": "N",
      "WindowCenterWidthExplanation": "Algo1",
      "dBdt": 0.0},
    "slices": {}
  },
  "time": {
    "samples": {
      "AcquisitionNumber": [1, 2, 3, 4, 5, 6, 7, 8, 9, 10, 11, 12, 13, 14, 15, 16, 17, 18, 19, 20, 21, 22, 23, 24, 25, 26, 27, 28, 29, 30, 31, 32, 33, 34, 35, 36, 37, 38, 39, 40, 41, 42, 43, 44, 45, 46, 47, 48, 49, 50, 51, 52, 53, 54, 55, 56, 57, 58, 59, 60, 61, 62, 63, 64, 65, 66, 67, 68, 69, 70, 71, 72, 73, 74, 75, 76, 77, 78, 79, 80, 81, 82, 83, 84, 85, 86, 87, 88, 89, 90, 91, 92, 93, 94, 95, 96, 97, 98, 99, 100, 101, 102, 103, 104, 105, 106, 107, 108, 109, 110, 111, 112, 113, 114, 115, 116, 117, 118, 119, 120, 121, 122, 123, 124, 125, 126, 127, 128, 129, 130, 131, 132, 133, 134, 135, 136, 137, 138, 139, 140, 141, 142, 143, 144, 145, 146, 147, 148, 149, 150, 151, 152, 153, 154, 155, 156, 157, 158, 159, 160, 161, 162, 163, 164, 165, 166, 167, 168, 169, 170, 171, 172, 173, 174, 175, 176, 177, 178, 179, 180, 181, 182, 183, 184, 185, 186, 187, 188, 189, 190, 191, 192, 193, 194, 195, 196, 197, 198, 199, 200, 201, 202, 203, 204, 205, 206, 207, 208, 209, 210, 211, 212, 213, 214, 215, 216, 217, 218, 219, 220, 221, 222, 223, 224, 225, 226, 227, 228, 229, 230, 231, 232, 233, 234, 235, 236, 237, 238, 239, 240, 241, 242, 243, 244, 245, 246, 247, 248, 249, 250, 251, 252, 253, 254, 255, 256, 257, 258, 259, 260, 261, 262, 263, 264, 265, 266, 267, 268, 269, 270, 271, 272, 273, 274, 275, 276, 277, 278, 279, 280, 281, 282, 283, 284, 285, 286, 287, 288, 289, 290, 291, 292, 293, 294, 295, 296, 297, 298, 299, 300, 301, 302, 303, 304, 305, 306, 307, 308, 309, 310, 311, 312, 313, 314, 315, 316, 317, 318, 319, 320, 321, 322, 323, 324, 325, 326, 327, 328, 329, 330, 331, 332, 333, 334, 335, 336, 337, 338, 339, 340, 341, 342, 343, 344, 345, 346, 347, 348, 349, 350, 351, 352, 353, 354, 355, 356, 357, 358, 359, 360, 361, 362, 363, 364, 365, 366, 367, 368, 369, 370, 371, 372, 373, 374, 375, 376, 377, 378, 379, 380, 381, 382, 383, 384, 385, 386, 387, 388, 389, 390, 391, 392, 393, 394, 395, 396, 397, 398, 399, 400, 401, 402, 403, 404, 405, 406, 407, 408, 409, 410, 411, 412, 413],
      "AcquisitionTime": ["111534.930000", "111536.420000", "111537.910000", "111539.400000", "111540.890000", "111542.380000", "111543.870000", "111545.360000", "111546.850000", "111548.340000", "111549.830000", "111551.320000", "111552.810000", "111554.300000", "111555.790000", "111557.280000", "111558.770000", "111600.260000", "111601.750000", "111603.240000", "111604.730000", "111606.220000", "111607.710000", "111609.200000", "111610.690000", "111612.180000", "111613.670000", "111615.160000", "111616.650000", "111618.140000", "111619.630000", "111621.120000", "111622.610000", "111624.100000", "111625.590000", "111627.080000", "111628.570000", "111630.060000", "111631.550000", "111633.040000", "111634.530000", "111636.020000", "111637.510000", "111639.000000", "111640.490000", "111641.980000", "111643.470000", "111644.960000", "111646.450000", "111647.940000", "111649.430000", "111650.920000", "111652.410000", "111653.900000", "111655.390000", "111656.880000", "111658.370000", "111659.860000", "111701.350000", "111702.840000", "111704.330000", "111705.820000", "111707.310000", "111708.800000", "111710.290000", "111711.780000", "111713.270000", "111714.760000", "111716.250000", "111717.740000", "111719.230000", "111720.720000", "111722.210000", "111723.700000", "111725.190000", "111726.680000", "111728.170000", "111729.660000", "111731.150000", "111732.640000", "111734.130000", "111735.620000", "111737.110000", "111738.600000", "111740.090000", "111741.580000", "111743.070000", "111744.560000", "111746.050000", "111747.540000", "111749.030000", "111750.520000", "111752.010000", "111753.500000", "111754.990000", "111756.480000", "111757.970000", "111759.460000", "111800.950000", "111802.440000", "111803.930000", "111805.420000", "111806.910000", "111808.400000", "111809.890000", "111811.380000", "111812.870000", "111814.360000", "111815.850000", "111817.340000", "111818.830000", "111820.320000", "111821.810000", "111823.300000", "111824.790000", "111826.280000", "111827.770000", "111829.260000", "111830.750000", "111832.240000", "111833.730000", "111835.220000", "111836.710000", "111838.200000", "111839.690000", "111841.180000", "111842.670000", "111844.160000", "111845.650000", "111847.140000", "111848.630000", "111850.120000", "111851.610000", "111853.100000", "111854.590000", "111856.080000", "111857.570000", "111859.060000", "111900.550000", "111902.040000", "111903.530000", "111905.020000", "111906.510000", "111908.000000", "111909.490000", "111910.980000", "111912.470000", "111913.960000", "111915.450000", "111916.940000", "111918.430000", "111919.920000", "111921.410000", "111922.900000", "111924.390000", "111925.880000", "111927.370000", "111928.860000", "111930.350000", "111931.840000", "111933.330000", "111934.820000", "111936.310000", "111937.800000", "111939.290000", "111940.780000", "111942.270000", "111943.760000", "111945.250000", "111946.740000", "111948.230000", "111949.720000", "111951.210000", "111952.700000", "111954.190000", "111955.680000", "111957.170000", "111958.660000", "112000.150000", "112001.640000", "112003.130000", "112004.620000", "112006.110000", "112007.600000", "112009.090000", "112010.580000", "112012.070000", "112013.560000", "112015.050000", "112016.540000", "112018.030000", "112019.520000", "112021.010000", "112022.500000", "112023.990000", "112025.480000", "112026.970000", "112028.460000", "112029.950000", "112031.440000", "112032.930000", "112034.420000", "112035.910000", "112037.400000", "112038.890000", "112040.380000", "112041.870000", "112043.360000", "112044.850000", "112046.340000", "112047.830000", "112049.320000", "112050.810000", "112052.300000", "112053.790000", "112055.280000", "112056.770000", "112058.260000", "112059.750000", "112101.240000", "112102.730000", "112104.220000", "112105.710000", "112107.200000", "112108.690000", "112110.180000", "112111.670000", "112113.160000", "112114.650000", "112116.140000", "112117.630000", "112119.120000", "112120.610000", "112122.100000", "112123.590000", "112125.080000", "112126.570000", "112128.060000", "112129.550000", "112131.040000", "112132.530000", "112134.020000", "112135.510000", "112137.000000", "112138.490000", "112139.980000", "112141.470000", "112142.960000", "112144.450000", "112145.940000", "112147.430000", "112148.920000", "112150.410000", "112151.900000", "112153.390000", "112154.880000", "112156.370000", "112157.860000", "112159.350000", "112200.840000", "112202.330000", "112203.820000", "112205.310000", "112206.800000", "112208.290000", "112209.780000", "112211.270000", "112212.760000", "112214.250000", "112215.740000", "112217.230000", "112218.720000", "112220.210000", "112221.700000", "112223.190000", "112224.680000", "112226.170000", "112227.660000", "112229.150000", "112230.640000", "112232.130000", "112233.620000", "112235.110000", "112236.600000", "112238.090000", "112239.580000", "112241.070000", "112242.560000", "112244.050000", "112245.540000", "112247.030000", "112248.520000", "112250.010000", "112251.500000", "112252.990000", "112254.480000", "112255.970000", "112257.460000", "112258.950000", "112300.440000", "112301.930000", "112303.420000", "112304.910000", "112306.400000", "112307.890000", "112309.380000", "112310.870000", "112312.360000", "112313.850000", "112315.340000", "112316.830000", "112318.320000", "112319.810000", "112321.300000", "112322.790000", "112324.280000", "112325.770000", "112327.260000", "112328.750000", "112330.240000", "112331.730000", "112333.220000", "112334.710000", "112336.200000", "112337.690000", "112339.180000", "112340.670000", "112342.160000", "112343.650000", "112345.140000", "112346.630000", "112348.120000", "112349.610000", "112351.100000", "112352.590000", "112354.080000", "112355.570000", "112357.060000", "112358.550000", "112400.040000", "112401.530000", "112403.020000", "112404.510000", "112406.000000", "112407.490000", "112408.980000", "112410.470000", "112411.960000", "112413.450000", "112414.940000", "112416.430000", "112417.920000", "112419.410000", "112420.900000", "112422.390000", "112423.880000", "112425.370000", "112426.860000", "112428.350000", "112429.840000", "112431.330000", "112432.820000", "112434.310000", "112435.800000", "112437.290000", "112438.780000", "112440.270000", "112441.760000", "112443.250000", "112444.740000", "112446.230000", "112447.720000", "112449.210000", "112450.700000", "112452.190000", "112453.680000", "112455.170000", "112456.660000", "112458.150000", "112459.640000", "112501.130000", "112502.620000", "112504.110000", "112505.600000", "112507.090000", "112508.580000", "112510.070000", "112511.560000", "112513.050000", "112514.540000", "112516.030000", "112517.520000", "112519.010000", "112520.500000", "112521.990000", "112523.480000", "112524.970000", "112526.460000", "112527.950000", "112529.440000", "112530.930000", "112532.420000", "112533.910000", "112535.400000", "112536.890000", "112538.380000", "112539.870000", "112541.360000", "112542.850000", "112544.340000", "112545.830000", "112547.320000", "112548.810000"],
      "ContentTime": ["111652.206000", "111652.209000", "111652.212000", "111652.215000", "111652.224000", "111652.227000", "111652.229000", "111652.237000", "111652.240000", "111652.243000", "111652.246000", "111652.255000", "111652.257000", "111652.260000", "111652.263000", "111652.266000", "111652.269000", "111652.272000", "111652.274000", "111652.277000", "111652.280000", "111652.283000", "111652.286000", "111652.288000", "111712.183000", "111712.186000", "111712.189000", "111712.191000", "111712.194000", "111712.197000", "111712.200000", "111712.203000", "111712.206000", "111712.209000", "111712.211000", "111712.214000", "111712.217000", "111712.220000", "111712.223000", "111712.225000", "111712.228000", "111712.231000", "111712.234000", "111712.236000", "111732.182000", "111732.185000", "111732.187000", "111732.190000", "111732.193000", "111732.196000", "111732.199000", "111732.202000", "111732.212000", "111732.214000", "111732.217000", "111732.220000", "111732.223000", "111732.226000", "111732.228000", "111732.231000", "111732.234000", "111732.237000", "111732.240000", "111732.243000", "111752.182000", "111752.185000", "111752.188000", "111752.190000", "111752.193000", "111752.196000", "111752.199000", "111752.202000", "111752.204000", "111752.207000", "111752.210000", "111752.213000", "111752.216000", "111752.219000", "111752.221000", "111752.224000", "111752.227000", "111752.233000", "111752.235000", "111752.238000", "111752.241000", "111812.183000", "111812.186000", "111812.189000", "111812.192000", "111812.194000", "111812.209000", "111812.211000", "111812.214000", "111812.217000", "111812.220000", "111812.223000", "111812.226000", "111812.229000", "111812.232000", "111812.234000", "111812.237000", "111812.240000", "111812.243000", "111812.246000", "111812.249000", "111852.183000", "111852.186000", "111852.189000", "111852.192000", "111852.194000", "111852.197000", "111852.205000", "111852.208000", "111852.210000", "111852.213000", "111852.216000", "111852.219000", "111852.222000", "111852.225000", "111852.227000", "111852.230000", "111852.233000", "111852.236000", "111852.239000", "111852.241000", "111852.244000", "111852.247000", "111852.250000", "111852.253000", "111852.255000", "111852.258000", "111852.261000", "111932.183000", "111932.186000", "111932.189000", "111932.192000", "111932.194000", "111932.197000", "111932.200000", "111932.203000", "111932.206000", "111932.209000", "111932.212000", "111932.215000", "111932.217000", "111932.220000", "111932.223000", "111932.226000", "111932.229000", "111932.231000", "111932.234000", "111932.237000", "111932.240000", "111932.243000", "111932.245000", "111932.248000", "111932.251000", "111932.254000", "112012.182000", "112012.185000", "112012.188000", "112012.191000", "112012.193000", "112012.196000", "112012.199000", "112012.202000", "112012.205000", "112012.208000", "112012.210000", "112012.213000", "112012.216000", "112012.219000", "112012.222000", "112012.225000", "112012.228000", "112012.231000", "112012.233000", "112012.236000", "112012.239000", "112012.242000", "112012.245000", "112012.248000", "112012.251000", "112012.254000", "112012.256000", "112052.183000", "112052.186000", "112052.189000", "112052.191000", "112052.194000", "112052.197000", "112052.200000", "112052.203000", "112052.205000", "112052.208000", "112052.211000", "112052.214000", "112052.217000", "112052.220000", "112052.222000", "112052.225000", "112052.228000", "112052.231000", "112052.234000", "112052.237000", "112052.240000", "112052.242000", "112052.245000", "112052.248000", "112052.251000", "112052.254000", "112052.266000", "112132.183000", "112132.186000", "112132.189000", "112132.192000", "112132.194000", "112132.197000", "112132.200000", "112132.203000", "112132.206000", "112132.209000", "112132.211000", "112132.214000", "112132.217000", "112132.220000", "112132.223000", "112132.226000", "112132.228000", "112132.231000", "112132.234000", "112132.237000", "112132.240000", "112132.242000", "112132.245000", "112132.248000", "112132.251000", "112132.254000", "112132.257000", "112212.182000", "112212.185000", "112212.188000", "112212.191000", "112212.193000", "112212.196000", "112212.199000", "112212.202000", "112212.205000", "112212.207000", "112212.210000", "112212.213000", "112212.216000", "112212.219000", "112212.222000", "112212.224000", "112212.227000", "112212.230000", "112212.233000", "112212.236000", "112212.238000", "112212.241000", "112212.244000", "112212.247000", "112212.250000", "112212.253000", "112212.256000", "112252.183000", "112252.186000", "112252.189000", "112252.192000", "112252.195000", "112252.198000", "112252.200000", "112252.203000", "112252.214000", "112252.217000", "112252.220000", "112252.223000", "112252.226000", "112252.229000", "112252.231000", "112252.234000", "112252.237000", "112252.240000", "112252.243000", "112252.246000", "112252.249000", "112252.252000", "112252.255000", "112252.257000", "112252.260000", "112252.263000", "112252.266000", "112332.183000", "112332.186000", "112332.189000", "112332.192000", "112332.194000", "112332.197000", "112332.200000", "112332.203000", "112332.206000", "112332.209000", "112332.212000", "112332.215000", "112332.218000", "112332.221000", "112332.224000", "112332.227000", "112332.230000", "112332.233000", "112332.236000", "112332.239000", "112332.242000", "112332.245000", "112332.247000", "112332.250000", "112332.253000", "112332.256000", "112352.183000", "112352.186000", "112352.189000", "112352.192000", "112352.194000", "112352.197000", "112352.200000", "112352.203000", "112352.206000", "112352.209000", "112352.211000", "112352.214000", "112352.217000", "112352.220000", "112432.182000", "112432.185000", "112432.188000", "112432.191000", "112432.193000", "112432.196000", "112432.199000", "112432.202000", "112432.205000", "112432.208000", "112432.211000", "112432.213000", "112432.216000", "112432.219000", "112432.222000", "112432.225000", "112432.228000", "112432.231000", "112432.234000", "112432.236000", "112432.239000", "112432.242000", "112432.245000", "112432.248000", "112432.251000", "112432.253000", "112432.256000", "112512.183000", "112512.186000", "112512.189000", "112512.192000", "112512.195000", "112512.197000", "112512.200000", "112512.203000", "112512.206000", "112512.209000", "112512.211000", "112512.214000", "112512.217000", "112512.220000", "112512.223000", "112512.226000", "112512.228000", "112512.231000", "112512.234000", "112512.237000", "112512.240000", "112512.243000", "112512.245000", "112512.248000", "112512.251000", "112512.254000", "112512.257000", "112550.838000", "112550.841000", "112550.844000", "112550.847000", "112550.850000", "112550.853000", "112550.856000", "112550.858000", "112550.861000", "112550.864000", "112550.867000", "112550.870000", "112550.873000", "112550.875000", "112550.878000", "112550.881000", "112550.884000", "112550.887000", "112550.890000", "112550.892000", "112550.895000", "112550.898000", "112550.901000", "112550.904000", "112550.907000", "112550.910000"],
      "InstanceCreationTime": ["111652.206000", "111652.209000", "111652.212000", "111652.215000", "111652.224000", "111652.227000", "111652.229000", "111652.237000", "111652.240000", "111652.243000", "111652.246000", "111652.255000", "111652.257000", "111652.260000", "111652.263000", "111652.266000", "111652.269000", "111652.272000", "111652.274000", "111652.277000", "111652.280000", "111652.283000", "111652.286000", "111652.288000", "111712.183000", "111712.186000", "111712.189000", "111712.191000", "111712.194000", "111712.197000", "111712.200000", "111712.203000", "111712.206000", "111712.209000", "111712.211000", "111712.214000", "111712.217000", "111712.220000", "111712.223000", "111712.225000", "111712.228000", "111712.231000", "111712.234000", "111712.236000", "111732.182000", "111732.185000", "111732.187000", "111732.190000", "111732.193000", "111732.196000", "111732.199000", "111732.202000", "111732.212000", "111732.214000", "111732.217000", "111732.220000", "111732.223000", "111732.226000", "111732.228000", "111732.231000", "111732.234000", "111732.237000", "111732.240000", "111732.243000", "111752.182000", "111752.185000", "111752.188000", "111752.190000", "111752.193000", "111752.196000", "111752.199000", "111752.202000", "111752.204000", "111752.207000", "111752.210000", "111752.213000", "111752.216000", "111752.219000", "111752.221000", "111752.224000", "111752.227000", "111752.233000", "111752.235000", "111752.238000", "111752.241000", "111812.183000", "111812.186000", "111812.189000", "111812.192000", "111812.194000", "111812.209000", "111812.211000", "111812.214000", "111812.217000", "111812.220000", "111812.223000", "111812.226000", "111812.229000", "111812.232000", "111812.234000", "111812.237000", "111812.240000", "111812.243000", "111812.246000", "111812.249000", "111852.183000", "111852.186000", "111852.189000", "111852.192000", "111852.194000", "111852.197000", "111852.205000", "111852.208000", "111852.210000", "111852.213000", "111852.216000", "111852.219000", "111852.222000", "111852.225000", "111852.227000", "111852.230000", "111852.233000", "111852.236000", "111852.239000", "111852.241000", "111852.244000", "111852.247000", "111852.250000", "111852.253000", "111852.255000", "111852.258000", "111852.261000", "111932.183000", "111932.186000", "111932.189000", "111932.192000", "111932.194000", "111932.197000", "111932.200000", "111932.203000", "111932.206000", "111932.209000", "111932.212000", "111932.215000", "111932.217000", "111932.220000", "111932.223000", "111932.226000", "111932.229000", "111932.231000", "111932.234000", "111932.237000", "111932.240000", "111932.243000", "111932.245000", "111932.248000", "111932.251000", "111932.254000", "112012.182000", "112012.185000", "112012.188000", "112012.191000", "112012.193000", "112012.196000", "112012.199000", "112012.202000", "112012.205000", "112012.208000", "112012.210000", "112012.213000", "112012.216000", "112012.219000", "112012.222000", "112012.225000", "112012.228000", "112012.231000", "112012.233000", "112012.236000", "112012.239000", "112012.242000", "112012.245000", "112012.248000", "112012.251000", "112012.254000", "112012.256000", "112052.183000", "112052.186000", "112052.189000", "112052.191000", "112052.194000", "112052.197000", "112052.200000", "112052.203000", "112052.205000", "112052.208000", "112052.211000", "112052.214000", "112052.217000", "112052.220000", "112052.222000", "112052.225000", "112052.228000", "112052.231000", "112052.234000", "112052.237000", "112052.240000", "112052.242000", "112052.245000", "112052.248000", "112052.251000", "112052.254000", "112052.266000", "112132.183000", "112132.186000", "112132.189000", "112132.192000", "112132.194000", "112132.197000", "112132.200000", "112132.203000", "112132.206000", "112132.209000", "112132.211000", "112132.214000", "112132.217000", "112132.220000", "112132.223000", "112132.226000", "112132.228000", "112132.231000", "112132.234000", "112132.237000", "112132.240000", "112132.242000", "112132.245000", "112132.248000", "112132.251000", "112132.254000", "112132.257000", "112212.182000", "112212.185000", "112212.188000", "112212.191000", "112212.193000", "112212.196000", "112212.199000", "112212.202000", "112212.205000", "112212.207000", "112212.210000", "112212.213000", "112212.216000", "112212.219000", "112212.222000", "112212.224000", "112212.227000", "112212.230000", "112212.233000", "112212.236000", "112212.238000", "112212.241000", "112212.244000", "112212.247000", "112212.250000", "112212.253000", "112212.256000", "112252.183000", "112252.186000", "112252.189000", "112252.192000", "112252.195000", "112252.198000", "112252.200000", "112252.203000", "112252.214000", "112252.217000", "112252.220000", "112252.223000", "112252.226000", "112252.229000", "112252.231000", "112252.234000", "112252.237000", "112252.240000", "112252.243000", "112252.246000", "112252.249000", "112252.252000", "112252.255000", "112252.257000", "112252.260000", "112252.263000", "112252.266000", "112332.183000", "112332.186000", "112332.189000", "112332.192000", "112332.194000", "112332.197000", "112332.200000", "112332.203000", "112332.206000", "112332.209000", "112332.212000", "112332.215000", "112332.218000", "112332.221000", "112332.224000", "112332.227000", "112332.230000", "112332.233000", "112332.236000", "112332.239000", "112332.242000", "112332.245000", "112332.247000", "112332.250000", "112332.253000", "112332.256000", "112352.183000", "112352.186000", "112352.189000", "112352.192000", "112352.194000", "112352.197000", "112352.200000", "112352.203000", "112352.206000", "112352.209000", "112352.211000", "112352.214000", "112352.217000", "112352.220000", "112432.182000", "112432.185000", "112432.188000", "112432.191000", "112432.193000", "112432.196000", "112432.199000", "112432.202000", "112432.205000", "112432.208000", "112432.211000", "112432.213000", "112432.216000", "112432.219000", "112432.222000", "112432.225000", "112432.228000", "112432.231000", "112432.234000", "112432.236000", "112432.239000", "112432.242000", "112432.245000", "112432.248000", "112432.251000", "112432.253000", "112432.256000", "112512.183000", "112512.186000", "112512.189000", "112512.192000", "112512.195000", "112512.197000", "112512.200000", "112512.203000", "112512.206000", "112512.209000", "112512.211000", "112512.214000", "112512.217000", "112512.220000", "112512.223000", "112512.226000", "112512.228000", "112512.231000", "112512.234000", "112512.237000", "112512.240000", "112512.243000", "112512.245000", "112512.248000", "112512.251000", "112512.254000", "112512.257000", "112550.838000", "112550.841000", "112550.844000", "112550.847000", "112550.850000", "112550.853000", "112550.856000", "112550.858000", "112550.861000", "112550.864000", "112550.867000", "112550.870000", "112550.873000", "112550.875000", "112550.878000", "112550.881000", "112550.884000", "112550.887000", "112550.890000", "112550.892000", "112550.895000", "112550.898000", "112550.901000", "112550.904000", "112550.907000", "112550.910000"],
