{
  "AcquisitionMatrixPE": 104,
  "AcquisitionNumber": 1,
  "AcquisitionTime": "10:27:34.465000",
  "BandwidthPerPixelPhaseEncode": 17.17,
  "BaseResolution": 104,
  "BodyPartExamined": "BRAIN",
  "CoilString": "HC1-7;NC1_2",
  "ConsistencyInfo": "N4_VE11C_LATEST_20160120",
  "ConversionSoftware": "dcm2niix",
  "ConversionSoftwareVersion": "v1.0.20190902",
  "DerivedVendorReportedEchoSpacing": 0.000560011,
  "DeviceSerialNumber": "167006",
  "DwellTime": 2.1e-06,
  "EchoTime": 0.037,
  "EchoTrainLength": 104,
  "EffectiveEchoSpacing": 0.000560011,
  "FlipAngle": 52,
  "ImageComments": "Unaliased_MB4_PE3_LB",
  "ImageOrientationPatientDICOM": [0.992386, 0.105481, 0.0635887, -0.0840307, 0.957309, -0.276582],
  "ImageType": [
    "ORIGINAL",
    "PRIMARY",
    "M",
    "MB",
    "ND",
    "MOSAIC"
],
  "ImagingFrequency": 123.259,
  "InPlanePhaseEncodingDirectionDICOM": "COL",
  "InstitutionAddress": "Chemin_Queen-Mary_4565_Montreal_District_CA_H3W_1W5",
  "InstitutionName": "IUGM",
  "InstitutionalDepartmentName": "Department",
  "MRAcquisitionType": "2D",
  "MagneticFieldStrength": 3,
  "Manufacturer": "Siemens",
  "ManufacturersModelName": "Prisma_fit",
  "Modality": "MR",
  "MultibandAccelerationFactor": 4,
  "PartialFourier": 1,
  "PatientPosition": "HFS",
  "PercentPhaseFOV": 100,
  "PhaseEncodingDirection": "j",
  "PhaseEncodingSteps": 104,
  "PhaseResolution": 1,
  "PixelBandwidth": 2290,
  "ProcedureStepDescription": "games_shinobi",
  "ProtocolName": "func_task-shinobi_run-1",
  "PulseSequenceDetails": "%CustomerSeq%_cmrr_mbep2d_bold",
  "ReceiveCoilActiveElements": "HC1-7;NC1,2",
  "ReceiveCoilName": "HeadNeck_64",
  "ReconMatrixPE": 104,
  "RepetitionTime": 1.49,
  "SAR": 0.0393399,
  "ScanOptions": "FS",
  "ScanningSequence": "EP",
  "SequenceName": "epfid2d1_104",
  "SequenceVariant": "SK_SS",
  "SeriesDescription": "func_task-shinobi_run-1",
  "SeriesNumber": 9,
  "ShimSetting": [636, -7221, -8824, 666, 101, -58, 84, -6],
  "SliceThickness": 2,
  "SliceTiming": [0, 0.7825, 0.0975, 0.88, 0.195, 0.98, 0.2925, 1.0775, 0.39, 1.175, 0.49, 1.2725, 0.5875, 1.37, 0.685, 0, 0.7825, 0.0975, 0.88, 0.195, 0.98, 0.2925, 1.0775, 0.39, 1.175, 0.49, 1.2725, 0.5875, 1.37, 0.685, 0, 0.7825, 0.0975, 0.88, 0.195, 0.98, 0.2925, 1.0775, 0.39, 1.175, 0.49, 1.2725, 0.5875, 1.37, 0.685, 0, 0.7825, 0.0975, 0.88, 0.195, 0.98, 0.2925, 1.0775, 0.39, 1.175, 0.49, 1.2725, 0.5875, 1.37, 0.685],
  "SoftwareVersions": "syngo_MR_E11",
  "SpacingBetweenSlices": 2,
  "StationName": "MRC35049",
  "TaskName": "shinobi",
  "TotalReadoutTime": 0.0576811,
  "TxRefAmp": 246.011,
  "WipMemBlock": "eab53f45-3914-4d8a-84fc-33fe4044887b||Sequence: R016 ve11c/master r/e634e98; Dec 19 2017 11:00:25 by eja",
  "dcmmeta_affine": [
    [-1.9847722053527832, -0.16806145012378693, 0.18009667098522186, 109.77330780029297],
    [-0.21096298098564148, 1.9146186113357544, -0.5382657051086426, -53.46923828125],
    [0.12717735767364502, 0.5531643033027649, 1.9177682399749756, -56.403358459472656],
    [0.0, 0.0, 0.0, 1.0]
],
  "dcmmeta_reorient_transform": [
    [0.0, -1.0, 0.0, 103.0],
    [1.0, 0.0, 0.0, 0.0],
    [0.0, 0.0, 1.0, 0.0],
    [0.0, 0.0, 0.0, 1.0]
],
  "dcmmeta_shape": [104, 104, 60, 498],
  "dcmmeta_slice_dim": 2,
  "dcmmeta_version": 0.6,
  "global": {
    "const": {
      "AcquisitionMatrix": [104, 0, 0, 104],
      "AngioFlag": "N",
      "BitsAllocated": 16,
      "BitsStored": 16,
      "BodyPartExamined": "BRAIN",
      "Columns": 832,
      "EchoNumbers": 1,
      "EchoTime": 37.0,
      "EchoTrainLength": 104,
      "FlipAngle": 52.0,
      "HighBit": 15,
      "ImageOrientationPatient": [0.99238608117409, 0.10548149366491, 0.0635886812739, -0.0840307276405, 0.95730933124131, -0.2765821417419],
      "ImagePositionPatient": [-753.74567627088, -917.44820411494, 155.63180277696],
      "ImageType": [
        "ORIGINAL",
        "PRIMARY",
        "M",
        "MB",
        "ND",
        "MOSAIC"
],
      "ImagedNucleus": "1H",
      "ImagingFrequency": 123.259108,
      "InPlanePhaseEncodingDirection": "COL",
      "MRAcquisitionType": "2D",
      "MagneticFieldStrength": 3.0,
      "Manufacturer": "SIEMENS",
      "ManufacturerModelName": "Prisma_fit",
      "Modality": "MR",
      "NumberOfAverages": 1.0,
      "NumberOfPhaseEncodingSteps": 104,
      "PercentPhaseFieldOfView": 100.0,
      "PercentSampling": 100.0,
      "PerformedProcedureStepStartTime": "102243.405000",
      "PhotometricInterpretation": "MONOCHROME2",
      "PixelBandwidth": 2290.0,
      "PixelRepresentation": 0,
      "PixelSpacing": [2.0, 2.0],
      "ProtocolName": "func_task-shinobi_run-1",
      "RepetitionTime": 1490.0,
      "Rows": 832,
      "SAR": 0.03933985672345,
      "SamplesPerPixel": 1,
      "ScanOptions": "FS",
      "ScanningSequence": "EP",
      "SequenceName": "epfid2d1_104",
      "SequenceVariant": [
        "SK",
        "SS"
],
      "SeriesDescription": "func_task-shinobi_run-1",
      "SeriesNumber": 9,
      "SeriesTime": "102901.266000",
      "SliceLocation": -29.809052127155,
      "SliceThickness": 2.0,
      "SmallestImagePixelValue": 0,
      "SoftwareVersions": "syngo MR E11",
      "SpacingBetweenSlices": 2.0000000020982,
      "SpecificCharacterSet": "ISO_IR 100",
      "StudyID": "1",
      "StudyTime": "102243.329000",
      "TransmitCoilName": "Body",
      "VariableFlipAngleFlag": "N",
      "WindowCenterWidthExplanation": "Algo1",
      "dBdt": 0.0},
    "slices": {}
  },
  "time": {
    "samples": {
      "AcquisitionNumber": [1, 2, 3, 4, 5, 6, 7, 8, 9, 10, 11, 12, 13, 14, 15, 16, 17, 18, 19, 20, 21, 22, 23, 24, 25, 26, 27, 28, 29, 30, 31, 32, 33, 34, 35, 36, 37, 38, 39, 40, 41, 42, 43, 44, 45, 46, 47, 48, 49, 50, 51, 52, 53, 54, 55, 56, 57, 58, 59, 60, 61, 62, 63, 64, 65, 66, 67, 68, 69, 70, 71, 72, 73, 74, 75, 76, 77, 78, 79, 80, 81, 82, 83, 84, 85, 86, 87, 88, 89, 90, 91, 92, 93, 94, 95, 96, 97, 98, 99, 100, 101, 102, 103, 104, 105, 106, 107, 108, 109, 110, 111, 112, 113, 114, 115, 116, 117, 118, 119, 120, 121, 122, 123, 124, 125, 126, 127, 128, 129, 130, 131, 132, 133, 134, 135, 136, 137, 138, 139, 140, 141, 142, 143, 144, 145, 146, 147, 148, 149, 150, 151, 152, 153, 154, 155, 156, 157, 158, 159, 160, 161, 162, 163, 164, 165, 166, 167, 168, 169, 170, 171, 172, 173, 174, 175, 176, 177, 178, 179, 180, 181, 182, 183, 184, 185, 186, 187, 188, 189, 190, 191, 192, 193, 194, 195, 196, 197, 198, 199, 200, 201, 202, 203, 204, 205, 206, 207, 208, 209, 210, 211, 212, 213, 214, 215, 216, 217, 218, 219, 220, 221, 222, 223, 224, 225, 226, 227, 228, 229, 230, 231, 232, 233, 234, 235, 236, 237, 238, 239, 240, 241, 242, 243, 244, 245, 246, 247, 248, 249, 250, 251, 252, 253, 254, 255, 256, 257, 258, 259, 260, 261, 262, 263, 264, 265, 266, 267, 268, 269, 270, 271, 272, 273, 274, 275, 276, 277, 278, 279, 280, 281, 282, 283, 284, 285, 286, 287, 288, 289, 290, 291, 292, 293, 294, 295, 296, 297, 298, 299, 300, 301, 302, 303, 304, 305, 306, 307, 308, 309, 310, 311, 312, 313, 314, 315, 316, 317, 318, 319, 320, 321, 322, 323, 324, 325, 326, 327, 328, 329, 330, 331, 332, 333, 334, 335, 336, 337, 338, 339, 340, 341, 342, 343, 344, 345, 346, 347, 348, 349, 350, 351, 352, 353, 354, 355, 356, 357, 358, 359, 360, 361, 362, 363, 364, 365, 366, 367, 368, 369, 370, 371, 372, 373, 374, 375, 376, 377, 378, 379, 380, 381, 382, 383, 384, 385, 386, 387, 388, 389, 390, 391, 392, 393, 394, 395, 396, 397, 398, 399, 400, 401, 402, 403, 404, 405, 406, 407, 408, 409, 410, 411, 412, 413, 414, 415, 416, 417, 418, 419, 420, 421, 422, 423, 424, 425, 426, 427, 428, 429, 430, 431, 432, 433, 434, 435, 436, 437, 438, 439, 440, 441, 442, 443, 444, 445, 446, 447, 448, 449, 450, 451, 452, 453, 454, 455, 456, 457, 458, 459, 460, 461, 462, 463, 464, 465, 466, 467, 468, 469, 470, 471, 472, 473, 474, 475, 476, 477, 478, 479, 480, 481, 482, 483, 484, 485, 486, 487, 488, 489, 490, 491, 492, 493, 494, 495, 496, 497, 498],
      "AcquisitionTime": ["102734.465000", "102735.955000", "102737.445000", "102738.935000", "102740.425000", "102741.915000", "102743.405000", "102744.895000", "102746.385000", "102747.875000", "102749.365000", "102750.855000", "102752.345000", "102753.835000", "102755.325000", "102756.815000", "102758.305000", "102759.795000", "102801.285000", "102802.775000", "102804.265000", "102805.755000", "102807.245000", "102808.735000", "102810.225000", "102811.715000", "102813.205000", "102814.695000", "102816.185000", "102817.675000", "102819.165000", "102820.655000", "102822.145000", "102823.635000", "102825.125000", "102826.615000", "102828.105000", "102829.595000", "102831.085000", "102832.575000", "102834.065000", "102835.555000", "102837.045000", "102838.535000", "102840.025000", "102841.515000", "102843.005000", "102844.495000", "102845.985000", "102847.475000", "102848.965000", "102850.455000", "102851.945000", "102853.435000", "102854.925000", "102856.415000", "102857.905000", "102859.395000", "102900.885000", "102902.375000", "102903.865000", "102905.355000", "102906.845000", "102908.335000", "102909.825000", "102911.315000", "102912.805000", "102914.295000", "102915.785000", "102917.275000", "102918.765000", "102920.255000", "102921.745000", "102923.235000", "102924.725000", "102926.215000", "102927.705000", "102929.195000", "102930.685000", "102932.175000", "102933.665000", "102935.155000", "102936.645000", "102938.135000", "102939.625000", "102941.115000", "102942.605000", "102944.095000", "102945.585000", "102947.075000", "102948.565000", "102950.055000", "102951.545000", "102953.035000", "102954.525000", "102956.015000", "102957.505000", "102958.995000", "103000.485000", "103001.975000", "103003.465000", "103004.955000", "103006.445000", "103007.935000", "103009.425000", "103010.915000", "103012.405000", "103013.895000", "103015.385000", "103016.875000", "103018.365000", "103019.855000", "103021.345000", "103022.835000", "103024.325000", "103025.815000", "103027.305000", "103028.795000", "103030.285000", "103031.775000", "103033.265000", "103034.755000", "103036.245000", "103037.735000", "103039.225000", "103040.715000", "103042.205000", "103043.695000", "103045.185000", "103046.675000", "103048.165000", "103049.655000", "103051.145000", "103052.635000", "103054.125000", "103055.615000", "103057.105000", "103058.595000", "103100.085000", "103101.575000", "103103.065000", "103104.555000", "103106.045000", "103107.535000", "103109.025000", "103110.515000", "103112.005000", "103113.495000", "103114.985000", "103116.475000", "103117.965000", "103119.455000", "103120.945000", "103122.435000", "103123.925000", "103125.415000", "103126.905000", "103128.395000", "103129.885000", "103131.375000", "103132.865000", "103134.355000", "103135.845000", "103137.335000", "103138.825000", "103140.315000", "103141.805000", "103143.295000", "103144.785000", "103146.275000", "103147.765000", "103149.255000", "103150.745000", "103152.235000", "103153.725000", "103155.215000", "103156.705000", "103158.195000", "103159.685000", "103201.175000", "103202.665000", "103204.155000", "103205.645000", "103207.135000", "103208.625000", "103210.115000", "103211.605000", "103213.095000", "103214.585000", "103216.075000", "103217.565000", "103219.055000", "103220.545000", "103222.035000", "103223.525000", "103225.015000", "103226.505000", "103227.995000", "103229.485000", "103230.975000", "103232.465000", "103233.955000", "103235.445000", "103236.935000", "103238.425000", "103239.915000", "103241.405000", "103242.895000", "103244.385000", "103245.875000", "103247.365000", "103248.855000", "103250.345000", "103251.835000", "103253.325000", "103254.815000", "103256.305000", "103257.795000", "103259.285000", "103300.775000", "103302.265000", "103303.755000", "103305.245000", "103306.735000", "103308.225000", "103309.715000", "103311.205000", "103312.695000", "103314.185000", "103315.675000", "103317.165000", "103318.655000", "103320.145000", "103321.635000", "103323.125000", "103324.615000", "103326.105000", "103327.595000", "103329.085000", "103330.575000", "103332.065000", "103333.555000", "103335.045000", "103336.535000", "103338.025000", "103339.515000", "103341.005000", "103342.495000", "103343.985000", "103345.475000", "103346.965000", "103348.455000", "103349.945000", "103351.435000", "103352.925000", "103354.415000", "103355.905000", "103357.395000", "103358.885000", "103400.375000", "103401.865000", "103403.355000", "103404.845000", "103406.335000", "103407.825000", "103409.315000", "103410.805000", "103412.295000", "103413.785000", "103415.275000", "103416.765000", "103418.255000", "103419.745000", "103421.235000", "103422.725000", "103424.215000", "103425.705000", "103427.195000", "103428.685000", "103430.175000", "103431.665000", "103433.155000", "103434.645000", "103436.135000", "103437.625000", "103439.115000", "103440.605000", "103442.095000", "103443.585000", "103445.075000", "103446.565000", "103448.055000", "103449.545000", "103451.035000", "103452.525000", "103454.015000", "103455.505000", "103456.995000", "103458.485000", "103459.975000", "103501.465000", "103502.955000", "103504.445000", "103505.935000", "103507.425000", "103508.915000", "103510.405000", "103511.895000", "103513.385000", "103514.875000", "103516.365000", "103517.855000", "103519.345000", "103520.835000", "103522.325000", "103523.815000", "103525.305000", "103526.795000", "103528.285000", "103529.775000", "103531.265000", "103532.755000", "103534.245000", "103535.735000", "103537.225000", "103538.715000", "103540.205000", "103541.695000", "103543.185000", "103544.675000", "103546.165000", "103547.655000", "103549.145000", "103550.635000", "103552.125000", "103553.615000", "103555.105000", "103556.595000", "103558.085000", "103559.575000", "103601.065000", "103602.555000", "103604.045000", "103605.535000", "103607.025000", "103608.515000", "103610.005000", "103611.495000", "103612.985000", "103614.475000", "103615.965000", "103617.455000", "103618.945000", "103620.435000", "103621.925000", "103623.415000", "103624.905000", "103626.395000", "103627.885000", "103629.375000", "103630.865000", "103632.355000", "103633.845000", "103635.335000", "103636.825000", "103638.315000", "103639.805000", "103641.295000", "103642.785000", "103644.275000", "103645.765000", "103647.255000", "103648.745000", "103650.235000", "103651.725000", "103653.215000", "103654.705000", "103656.195000", "103657.685000", "103659.175000", "103700.665000", "103702.155000", "103703.645000", "103705.135000", "103706.625000", "103708.115000", "103709.605000", "103711.095000", "103712.585000", "103714.075000", "103715.565000", "103717.055000", "103718.545000", "103720.035000", "103721.525000", "103723.015000", "103724.505000", "103725.995000", "103727.485000", "103728.975000", "103730.465000", "103731.955000", "103733.445000", "103734.935000", "103736.425000", "103737.915000", "103739.405000", "103740.895000", "103742.385000", "103743.875000", "103745.365000", "103746.855000", "103748.345000", "103749.835000", "103751.325000", "103752.815000", "103754.305000", "103755.795000", "103757.285000", "103758.775000", "103800.265000", "103801.755000", "103803.245000", "103804.735000", "103806.225000", "103807.715000", "103809.205000", "103810.695000", "103812.185000", "103813.675000", "103815.165000", "103816.655000", "103818.145000", "103819.635000", "103821.125000", "103822.615000", "103824.105000", "103825.595000", "103827.085000", "103828.575000", "103830.065000", "103831.555000", "103833.045000", "103834.535000", "103836.025000", "103837.515000", "103839.005000", "103840.495000", "103841.985000", "103843.475000", "103844.965000", "103846.455000", "103847.945000", "103849.435000", "103850.925000", "103852.415000", "103853.905000", "103855.395000", "103856.885000", "103858.375000", "103859.865000", "103901.355000", "103902.845000", "103904.335000", "103905.825000", "103907.315000", "103908.805000", "103910.295000", "103911.785000", "103913.275000", "103914.765000", "103916.255000", "103917.745000", "103919.235000", "103920.725000", "103922.215000", "103923.705000", "103925.195000", "103926.685000", "103928.175000", "103929.665000", "103931.155000", "103932.645000", "103934.135000", "103935.625000", "103937.115000", "103938.605000", "103940.095000", "103941.585000", "103943.075000", "103944.565000", "103946.055000", "103947.545000", "103949.035000", "103950.525000", "103952.015000", "103953.505000", "103954.995000"],
      "ContentTime": ["102901.269000", "102901.277000", "102901.280000", "102901.283000", "102901.286000", "102901.289000", "102901.292000", "102901.295000", "102901.298000", "102901.301000", "102901.304000", "102901.306000", "102901.309000", "102901.312000", "102901.315000", "102901.318000", "102901.321000", "102901.323000", "102901.326000", "102901.329000", "102901.332000", "102901.335000", "102901.337000", "102901.340000", "102901.343000", "102901.346000", "102901.349000", "102901.352000", "102901.354000", "102921.241000", "102921.244000", "102921.247000", "102921.249000", "102921.252000", "102921.255000", "102921.258000", "102921.261000", "102921.263000", "102921.266000", "102921.269000", "102921.272000", "102921.275000", "102921.277000", "102921.280000", "102921.283000", "102921.286000", "102921.289000", "102921.292000", "102921.294000", "102941.241000", "102941.244000", "102941.247000", "102941.250000", "102941.252000", "102941.255000", "102941.258000", "102941.261000", "102941.264000", "102941.266000", "102941.269000", "102941.272000", "102941.275000", "102941.278000", "102941.280000", "102941.283000", "102941.286000", "102941.289000", "102941.292000", "102941.294000", "103001.241000", "103001.244000", "103001.247000", "103001.249000", "103001.252000", "103001.255000", "103001.258000", "103001.261000", "103001.264000", "103001.266000", "103001.269000", "103001.272000", "103001.275000", "103001.278000", "103001.281000", "103001.284000", "103001.292000", "103001.294000", "103001.297000", "103001.300000", "103021.240000", "103021.243000", "103021.246000", "103021.255000", "103021.258000", "103021.261000", "103021.263000", "103021.266000", "103021.269000", "103021.272000", "103021.275000", "103021.277000", "103021.280000", "103021.283000", "103021.286000", "103021.289000", "103021.292000", "103021.294000", "103021.297000", "103021.300000", "103101.241000", "103101.244000", "103101.247000", "103101.250000", "103101.252000", "103101.255000", "103101.258000", "103101.261000", "103101.264000", "103101.267000", "103101.269000", "103101.272000", "103101.275000", "103101.278000", "103101.281000", "103101.284000", "103101.286000", "103101.289000", "103101.292000", "103101.295000", "103101.298000", "103101.301000", "103101.303000", "103101.306000", "103101.309000", "103101.312000", "103101.315000", "103101.318000", "103101.321000", "103141.241000", "103141.244000", "103141.247000", "103141.250000", "103141.252000", "103141.255000", "103141.258000", "103141.261000", "103141.264000", "103141.266000", "103141.269000", "103141.272000", "103141.275000", "103141.278000", "103141.280000", "103141.283000", "103141.286000", "103141.289000", "103141.292000", "103141.294000", "103141.297000", "103141.300000", "103141.303000", "103141.306000", "103141.308000", "103141.311000", "103221.241000", "103221.244000", "103221.247000", "103221.250000", "103221.252000", "103221.266000", "103221.269000", "103221.272000", "103221.275000", "103221.277000", "103221.280000", "103221.283000", "103221.286000", "103221.289000", "103221.292000", "103221.294000", "103221.297000", "103221.300000", "103221.303000", "103221.306000", "103221.309000", "103221.312000", "103221.314000", "103221.317000", "103221.320000", "103221.323000", "103221.326000", "103301.240000", "103301.273000", "103301.276000", "103301.279000", "103301.284000", "103301.287000", "103301.290000", "103301.293000", "103301.296000", "103301.298000", "103301.301000", "103301.304000", "103301.307000", "103301.310000", "103301.313000", "103301.315000", "103301.318000", "103301.321000", "103301.324000", "103301.327000", "103301.330000", "103301.333000", "103301.335000", "103301.338000", "103301.341000", "103301.344000", "103301.347000", "103341.241000", "103341.244000", "103341.247000", "103341.250000", "103341.252000", "103341.255000", "103341.258000", "103341.261000", "103341.264000", "103341.266000", "103341.269000", "103341.272000", "103341.275000", "103341.278000", "103341.281000", "103341.283000", "103341.286000", "103341.289000", "103341.292000", "103341.295000", "103341.298000", "103341.301000", "103341.303000", "103341.306000", "103341.309000", "103341.312000", "103341.315000", "103401.241000", "103401.244000", "103401.247000", "103401.250000", "103401.253000", "103401.255000", "103401.258000", "103401.261000", "103401.264000", "103401.267000", "103401.269000", "103401.272000", "103401.275000", "103441.243000", "103441.248000", "103441.251000", "103441.254000", "103441.257000", "103441.260000", "103441.263000", "103441.266000", "103441.269000", "103441.273000", "103441.277000", "103441.280000", "103441.285000", "103441.288000", "103441.291000", "103441.294000", "103441.297000", "103441.300000", "103441.302000", "103441.305000", "103441.308000", "103441.311000", "103441.314000", "103441.317000", "103441.319000", "103441.322000", "103441.325000", "103521.240000", "103521.243000", "103521.246000", "103521.249000", "103521.251000", "103521.254000", "103521.257000", "103521.260000", "103521.263000", "103521.266000", "103521.268000", "103521.271000", "103521.274000", "103521.277000", "103521.280000", "103521.283000", "103521.285000", "103521.288000", "103521.291000", "103521.294000", "103521.297000", "103521.300000", "103521.302000", "103521.305000", "103521.308000", "103521.311000", "103521.314000", "103601.241000", "103601.244000", "103601.247000", "103601.250000", "103601.252000", "103601.255000", "103601.258000", "103601.261000", "103601.264000", "103601.267000", "103601.269000", "103601.272000", "103601.275000", "103601.278000", "103601.281000", "103601.283000", "103601.286000", "103601.289000", "103601.292000", "103601.295000", "103601.297000", "103601.300000", "103601.303000", "103601.306000", "103601.309000", "103601.312000", "103601.314000", "103641.241000", "103641.244000", "103641.247000", "103641.250000", "103641.253000", "103641.256000", "103641.258000", "103641.261000", "103641.264000", "103641.267000", "103641.270000", "103641.272000", "103641.275000", "103641.291000", "103641.294000", "103641.296000", "103641.299000", "103641.302000", "103641.305000", "103641.308000", "103641.311000", "103641.314000", "103641.316000", "103641.319000", "103641.322000", "103641.325000", "103641.328000", "103721.240000", "103721.243000", "103721.246000", "103721.249000", "103721.251000", "103721.254000", "103721.257000", "103721.260000", "103721.263000", "103721.266000", "103721.268000", "103721.271000", "103721.274000", "103721.277000", "103721.280000", "103721.283000", "103721.286000", "103721.289000", "103721.291000", "103721.294000", "103721.297000", "103721.300000", "103721.303000", "103721.305000", "103721.308000", "103721.311000", "103721.314000", "103801.241000", "103801.244000", "103801.247000", "103801.250000", "103801.252000", "103801.255000", "103801.258000", "103801.261000", "103801.264000", "103801.266000", "103801.269000", "103801.272000", "103801.275000", "103801.278000", "103801.281000", "103801.284000", "103801.286000", "103801.289000", "103801.292000", "103801.295000", "103801.298000", "103801.300000", "103801.303000", "103801.306000", "103801.309000", "103801.312000", "103801.315000", "103841.241000", "103841.244000", "103841.247000", "103841.250000", "103841.253000", "103841.255000", "103841.258000", "103841.261000", "103841.264000", "103841.267000", "103841.270000", "103841.272000", "103841.275000", "103841.278000", "103841.282000", "103841.286000", "103841.289000", "103841.292000", "103841.295000", "103841.297000", "103841.300000", "103841.303000", "103841.306000", "103841.309000", "103841.312000", "103841.314000", "103921.241000", "103921.244000", "103921.247000", "103921.250000", "103921.253000", "103921.255000", "103921.258000", "103921.261000", "103921.264000", "103921.267000", "103921.269000", "103921.279000", "103921.282000", "103921.285000", "103921.288000", "103921.290000", "103921.293000", "103921.296000", "103921.299000", "103921.302000", "103921.305000", "103921.307000", "103921.310000", "103921.313000", "103921.316000", "103921.319000", "103921.322000", "103958.323000", "103958.326000", "103958.329000", "103958.332000", "103958.335000", "103958.338000", "103958.341000", "103958.344000", "103958.347000", "103958.350000", "103958.353000", "103958.356000", "103958.359000", "103958.362000", "103958.364000", "103958.367000", "103958.370000", "103958.373000", "103958.376000", "103958.379000", "103958.381000", "103958.384000", "103958.387000", "103958.390000", "103958.393000"],
