{
  "AcquisitionMatrixPE": 104,
  "AcquisitionNumber": 1,
  "AcquisitionTime": "10:51:24.802500",
  "BandwidthPerPixelPhaseEncode": 17.17,
  "BaseResolution": 104,
  "BodyPartExamined": "BRAIN",
  "CoilString": "HC1-7;NC1_2",
  "ConsistencyInfo": "N4_VE11C_LATEST_20160120",
  "ConversionSoftware": "dcm2niix",
  "ConversionSoftwareVersion": "v1.0.20190902",
  "DerivedVendorReportedEchoSpacing": 0.000560011,
  "DeviceSerialNumber": "167006",
  "DwellTime": 2.1e-06,
  "EchoTime": 0.037,
  "EchoTrainLength": 104,
  "EffectiveEchoSpacing": 0.000560011,
  "FlipAngle": 52,
  "ImageComments": "Unaliased_MB4_PE3_LB",
  "ImageOrientationPatientDICOM": [0.992386, 0.105481, 0.0635887, -0.0840307, 0.957309, -0.276582],
  "ImageType": [
    "ORIGINAL",
    "PRIMARY",
    "M",
    "MB",
    "ND",
    "MOSAIC"
],
  "ImagingFrequency": 123.259,
  "InPlanePhaseEncodingDirectionDICOM": "COL",
  "InstitutionAddress": "Chemin_Queen-Mary_4565_Montreal_District_CA_H3W_1W5",
  "InstitutionName": "IUGM",
  "InstitutionalDepartmentName": "Department",
  "MRAcquisitionType": "2D",
  "MagneticFieldStrength": 3,
  "Manufacturer": "Siemens",
  "ManufacturersModelName": "Prisma_fit",
  "Modality": "MR",
  "MultibandAccelerationFactor": 4,
  "PartialFourier": 1,
  "PatientPosition": "HFS",
  "PercentPhaseFOV": 100,
  "PhaseEncodingDirection": "j",
  "PhaseEncodingSteps": 104,
  "PhaseResolution": 1,
  "PixelBandwidth": 2290,
  "ProcedureStepDescription": "games_shinobi",
  "ProtocolName": "func_task-shinobi_run-3",
  "PulseSequenceDetails": "%CustomerSeq%_cmrr_mbep2d_bold",
  "ReceiveCoilActiveElements": "HC1-7;NC1,2",
  "ReceiveCoilName": "HeadNeck_64",
  "ReconMatrixPE": 104,
  "RepetitionTime": 1.49,
  "SAR": 0.0393399,
  "ScanOptions": "FS",
  "ScanningSequence": "EP",
  "SequenceName": "epfid2d1_104",
  "SequenceVariant": "SK_SS",
  "SeriesDescription": "func_task-shinobi_run-3",
  "SeriesNumber": 13,
  "ShimSetting": [636, -7221, -8824, 666, 101, -58, 84, -6],
  "SliceThickness": 2,
  "SliceTiming": [0, 0.785, 0.1, 0.8825, 0.1975, 0.98, 0.295, 1.08, 0.3925, 1.1775, 0.49, 1.275, 0.59, 1.3725, 0.6875, 0, 0.785, 0.1, 0.8825, 0.1975, 0.98, 0.295, 1.08, 0.3925, 1.1775, 0.49, 1.275, 0.59, 1.3725, 0.6875, 0, 0.785, 0.1, 0.8825, 0.1975, 0.98, 0.295, 1.08, 0.3925, 1.1775, 0.49, 1.275, 0.59, 1.3725, 0.6875, 0, 0.785, 0.1, 0.8825, 0.1975, 0.98, 0.295, 1.08, 0.3925, 1.1775, 0.49, 1.275, 0.59, 1.3725, 0.6875],
  "SoftwareVersions": "syngo_MR_E11",
  "SpacingBetweenSlices": 2,
  "StationName": "MRC35049",
  "TaskName": "shinobi",
  "TotalReadoutTime": 0.0576811,
  "TxRefAmp": 246.011,
  "WipMemBlock": "1769aee0-7a62-4d09-bd73-4d4e3a5db566||Sequence: R016 ve11c/master r/e634e98; Dec 19 2017 11:00:25 by eja",
  "dcmmeta_affine": [
    [-1.9847722053527832, -0.16806145012378693, 0.18009667098522186, 109.77330780029297],
    [-0.21096298098564148, 1.9146186113357544, -0.5382657051086426, -53.46923828125],
    [0.12717735767364502, 0.5531643033027649, 1.9177682399749756, -56.403358459472656],
    [0.0, 0.0, 0.0, 1.0]
],
  "dcmmeta_reorient_transform": [
    [0.0, -1.0, 0.0, 103.0],
    [1.0, 0.0, 0.0, 0.0],
    [0.0, 0.0, 1.0, 0.0],
    [0.0, 0.0, 0.0, 1.0]
],
  "dcmmeta_shape": [104, 104, 60, 451],
  "dcmmeta_slice_dim": 2,
  "dcmmeta_version": 0.6,
  "global": {
    "const": {
      "AcquisitionMatrix": [104, 0, 0, 104],
      "AngioFlag": "N",
      "BitsAllocated": 16,
      "BitsStored": 16,
      "BodyPartExamined": "BRAIN",
      "Columns": 832,
      "EchoNumbers": 1,
      "EchoTime": 37.0,
      "EchoTrainLength": 104,
      "FlipAngle": 52.0,
      "HighBit": 15,
      "ImageOrientationPatient": [0.99238608117409, 0.10548149366491, 0.0635886812739, -0.0840307276405, 0.95730933124131, -0.2765821417419],
      "ImagePositionPatient": [-753.74567627088, -917.44820411494, 155.63180277696],
      "ImageType": [
        "ORIGINAL",
        "PRIMARY",
        "M",
        "MB",
        "ND",
        "MOSAIC"
],
      "ImagedNucleus": "1H",
      "ImagingFrequency": 123.25912,
      "InPlanePhaseEncodingDirection": "COL",
      "MRAcquisitionType": "2D",
      "MagneticFieldStrength": 3.0,
      "Manufacturer": "SIEMENS",
      "ManufacturerModelName": "Prisma_fit",
      "Modality": "MR",
      "NumberOfAverages": 1.0,
      "NumberOfPhaseEncodingSteps": 104,
      "PercentPhaseFieldOfView": 100.0,
      "PercentSampling": 100.0,
      "PerformedProcedureStepStartTime": "102243.405000",
      "PhotometricInterpretation": "MONOCHROME2",
      "PixelBandwidth": 2290.0,
      "PixelRepresentation": 0,
      "PixelSpacing": [2.0, 2.0],
      "ProtocolName": "func_task-shinobi_run-3",
      "RepetitionTime": 1490.0,
      "Rows": 832,
      "SAR": 0.03933985672345,
      "SamplesPerPixel": 1,
      "ScanOptions": "FS",
      "ScanningSequence": "EP",
      "SequenceName": "epfid2d1_104",
      "SequenceVariant": [
        "SK",
        "SS"
],
      "SeriesDescription": "func_task-shinobi_run-3",
      "SeriesNumber": 13,
      "SeriesTime": "105252.073000",
      "SliceLocation": -29.809052127155,
      "SliceThickness": 2.0,
      "SmallestImagePixelValue": 0,
      "SoftwareVersions": "syngo MR E11",
      "SpacingBetweenSlices": 2.0000000020982,
      "SpecificCharacterSet": "ISO_IR 100",
      "StudyID": "1",
      "StudyTime": "102243.329000",
      "TransmitCoilName": "Body",
      "VariableFlipAngleFlag": "N",
      "WindowCenterWidthExplanation": "Algo1",
      "dBdt": 0.0},
    "slices": {}
  },
  "time": {
    "samples": {
      "AcquisitionNumber": [1, 2, 3, 4, 5, 6, 7, 8, 9, 10, 11, 12, 13, 14, 15, 16, 17, 18, 19, 20, 21, 22, 23, 24, 25, 26, 27, 28, 29, 30, 31, 32, 33, 34, 35, 36, 37, 38, 39, 40, 41, 42, 43, 44, 45, 46, 47, 48, 49, 50, 51, 52, 53, 54, 55, 56, 57, 58, 59, 60, 61, 62, 63, 64, 65, 66, 67, 68, 69, 70, 71, 72, 73, 74, 75, 76, 77, 78, 79, 80, 81, 82, 83, 84, 85, 86, 87, 88, 89, 90, 91, 92, 93, 94, 95, 96, 97, 98, 99, 100, 101, 102, 103, 104, 105, 106, 107, 108, 109, 110, 111, 112, 113, 114, 115, 116, 117, 118, 119, 120, 121, 122, 123, 124, 125, 126, 127, 128, 129, 130, 131, 132, 133, 134, 135, 136, 137, 138, 139, 140, 141, 142, 143, 144, 145, 146, 147, 148, 149, 150, 151, 152, 153, 154, 155, 156, 157, 158, 159, 160, 161, 162, 163, 164, 165, 166, 167, 168, 169, 170, 171, 172, 173, 174, 175, 176, 177, 178, 179, 180, 181, 182, 183, 184, 185, 186, 187, 188, 189, 190, 191, 192, 193, 194, 195, 196, 197, 198, 199, 200, 201, 202, 203, 204, 205, 206, 207, 208, 209, 210, 211, 212, 213, 214, 215, 216, 217, 218, 219, 220, 221, 222, 223, 224, 225, 226, 227, 228, 229, 230, 231, 232, 233, 234, 235, 236, 237, 238, 239, 240, 241, 242, 243, 244, 245, 246, 247, 248, 249, 250, 251, 252, 253, 254, 255, 256, 257, 258, 259, 260, 261, 262, 263, 264, 265, 266, 267, 268, 269, 270, 271, 272, 273, 274, 275, 276, 277, 278, 279, 280, 281, 282, 283, 284, 285, 286, 287, 288, 289, 290, 291, 292, 293, 294, 295, 296, 297, 298, 299, 300, 301, 302, 303, 304, 305, 306, 307, 308, 309, 310, 311, 312, 313, 314, 315, 316, 317, 318, 319, 320, 321, 322, 323, 324, 325, 326, 327, 328, 329, 330, 331, 332, 333, 334, 335, 336, 337, 338, 339, 340, 341, 342, 343, 344, 345, 346, 347, 348, 349, 350, 351, 352, 353, 354, 355, 356, 357, 358, 359, 360, 361, 362, 363, 364, 365, 366, 367, 368, 369, 370, 371, 372, 373, 374, 375, 376, 377, 378, 379, 380, 381, 382, 383, 384, 385, 386, 387, 388, 389, 390, 391, 392, 393, 394, 395, 396, 397, 398, 399, 400, 401, 402, 403, 404, 405, 406, 407, 408, 409, 410, 411, 412, 413, 414, 415, 416, 417, 418, 419, 420, 421, 422, 423, 424, 425, 426, 427, 428, 429, 430, 431, 432, 433, 434, 435, 436, 437, 438, 439, 440, 441, 442, 443, 444, 445, 446, 447, 448, 449, 450, 451],
      "AcquisitionTime": ["105124.802500", "105126.292500", "105127.782500", "105129.272500", "105130.762500", "105132.252500", "105133.742500", "105135.232500", "105136.722500", "105138.212500", "105139.702500", "105141.192500", "105142.682500", "105144.172500", "105145.662500", "105147.152500", "105148.642500", "105150.132500", "105151.622500", "105153.112500", "105154.602500", "105156.092500", "105157.582500", "105159.072500", "105200.562500", "105202.052500", "105203.542500", "105205.032500", "105206.522500", "105208.012500", "105209.502500", "105210.992500", "105212.482500", "105213.972500", "105215.462500", "105216.952500", "105218.442500", "105219.932500", "105221.422500", "105222.912500", "105224.402500", "105225.892500", "105227.382500", "105228.872500", "105230.362500", "105231.852500", "105233.342500", "105234.832500", "105236.322500", "105237.812500", "105239.302500", "105240.792500", "105242.282500", "105243.772500", "105245.262500", "105246.752500", "105248.242500", "105249.732500", "105251.222500", "105252.712500", "105254.202500", "105255.692500", "105257.182500", "105258.672500", "105300.162500", "105301.652500", "105303.142500", "105304.632500", "105306.122500", "105307.612500", "105309.102500", "105310.592500", "105312.082500", "105313.572500", "105315.062500", "105316.552500", "105318.042500", "105319.532500", "105321.022500", "105322.512500", "105324.002500", "105325.492500", "105326.982500", "105328.472500", "105329.962500", "105331.452500", "105332.942500", "105334.432500", "105335.922500", "105337.412500", "105338.902500", "105340.392500", "105341.882500", "105343.372500", "105344.862500", "105346.352500", "105347.842500", "105349.332500", "105350.822500", "105352.312500", "105353.802500", "105355.292500", "105356.782500", "105358.272500", "105359.762500", "105401.252500", "105402.742500", "105404.232500", "105405.722500", "105407.212500", "105408.702500", "105410.192500", "105411.682500", "105413.172500", "105414.662500", "105416.152500", "105417.642500", "105419.132500", "105420.622500", "105422.112500", "105423.602500", "105425.092500", "105426.582500", "105428.072500", "105429.562500", "105431.052500", "105432.542500", "105434.032500", "105435.522500", "105437.012500", "105438.502500", "105439.992500", "105441.482500", "105442.972500", "105444.462500", "105445.952500", "105447.442500", "105448.932500", "105450.422500", "105451.912500", "105453.402500", "105454.892500", "105456.382500", "105457.872500", "105459.362500", "105500.852500", "105502.342500", "105503.832500", "105505.322500", "105506.812500", "105508.302500", "105509.792500", "105511.282500", "105512.772500", "105514.262500", "105515.752500", "105517.242500", "105518.732500", "105520.222500", "105521.712500", "105523.202500", "105524.692500", "105526.182500", "105527.672500", "105529.162500", "105530.652500", "105532.142500", "105533.632500", "105535.122500", "105536.612500", "105538.102500", "105539.592500", "105541.082500", "105542.572500", "105544.062500", "105545.552500", "105547.042500", "105548.532500", "105550.022500", "105551.512500", "105553.002500", "105554.492500", "105555.982500", "105557.472500", "105558.962500", "105600.452500", "105601.942500", "105603.432500", "105604.922500", "105606.412500", "105607.902500", "105609.392500", "105610.882500", "105612.372500", "105613.862500", "105615.352500", "105616.842500", "105618.332500", "105619.822500", "105621.312500", "105622.802500", "105624.292500", "105625.782500", "105627.272500", "105628.762500", "105630.252500", "105631.742500", "105633.232500", "105634.722500", "105636.212500", "105637.702500", "105639.192500", "105640.682500", "105642.172500", "105643.662500", "105645.152500", "105646.642500", "105648.132500", "105649.622500", "105651.112500", "105652.602500", "105654.092500", "105655.582500", "105657.072500", "105658.562500", "105700.052500", "105701.542500", "105703.032500", "105704.522500", "105706.012500", "105707.502500", "105708.992500", "105710.482500", "105711.972500", "105713.462500", "105714.952500", "105716.442500", "105717.932500", "105719.422500", "105720.912500", "105722.402500", "105723.892500", "105725.382500", "105726.872500", "105728.362500", "105729.852500", "105731.342500", "105732.832500", "105734.322500", "105735.812500", "105737.302500", "105738.792500", "105740.282500", "105741.772500", "105743.262500", "105744.752500", "105746.242500", "105747.732500", "105749.222500", "105750.712500", "105752.202500", "105753.692500", "105755.182500", "105756.672500", "105758.162500", "105759.652500", "105801.142500", "105802.632500", "105804.122500", "105805.612500", "105807.102500", "105808.592500", "105810.082500", "105811.572500", "105813.062500", "105814.552500", "105816.042500", "105817.532500", "105819.022500", "105820.512500", "105822.002500", "105823.492500", "105824.982500", "105826.472500", "105827.962500", "105829.452500", "105830.942500", "105832.432500", "105833.922500", "105835.412500", "105836.902500", "105838.392500", "105839.882500", "105841.372500", "105842.862500", "105844.352500", "105845.842500", "105847.332500", "105848.822500", "105850.312500", "105851.802500", "105853.292500", "105854.782500", "105856.272500", "105857.762500", "105859.252500", "105900.742500", "105902.232500", "105903.722500", "105905.212500", "105906.702500", "105908.192500", "105909.682500", "105911.172500", "105912.662500", "105914.152500", "105915.642500", "105917.132500", "105918.622500", "105920.112500", "105921.602500", "105923.092500", "105924.582500", "105926.072500", "105927.562500", "105929.052500", "105930.542500", "105932.032500", "105933.522500", "105935.012500", "105936.502500", "105937.992500", "105939.482500", "105940.972500", "105942.462500", "105943.952500", "105945.442500", "105946.932500", "105948.422500", "105949.912500", "105951.402500", "105952.892500", "105954.382500", "105955.872500", "105957.362500", "105958.852500", "110000.342500", "110001.832500", "110003.322500", "110004.812500", "110006.302500", "110007.792500", "110009.282500", "110010.772500", "110012.262500", "110013.752500", "110015.242500", "110016.732500", "110018.222500", "110019.712500", "110021.202500", "110022.692500", "110024.182500", "110025.672500", "110027.162500", "110028.652500", "110030.142500", "110031.632500", "110033.122500", "110034.612500", "110036.102500", "110037.592500", "110039.082500", "110040.572500", "110042.062500", "110043.552500", "110045.042500", "110046.532500", "110048.022500", "110049.512500", "110051.002500", "110052.492500", "110053.982500", "110055.472500", "110056.962500", "110058.452500", "110059.942500", "110101.432500", "110102.922500", "110104.412500", "110105.902500", "110107.392500", "110108.882500", "110110.372500", "110111.862500", "110113.352500", "110114.842500", "110116.332500", "110117.822500", "110119.312500", "110120.802500", "110122.292500", "110123.782500", "110125.272500", "110126.762500", "110128.252500", "110129.742500", "110131.232500", "110132.722500", "110134.212500", "110135.702500", "110137.192500", "110138.682500", "110140.172500", "110141.662500", "110143.152500", "110144.642500", "110146.132500", "110147.622500", "110149.112500", "110150.602500", "110152.092500", "110153.582500", "110155.072500", "110156.562500", "110158.052500", "110159.542500", "110201.032500", "110202.522500", "110204.012500", "110205.502500", "110206.992500", "110208.482500", "110209.972500", "110211.462500", "110212.952500", "110214.442500", "110215.932500", "110217.422500", "110218.912500", "110220.402500", "110221.892500", "110223.382500", "110224.872500", "110226.362500", "110227.852500", "110229.342500", "110230.832500", "110232.322500", "110233.812500", "110235.302500"],
      "ContentTime": ["105252.076000", "105252.079000", "105252.082000", "105252.085000", "105252.088000", "105252.090000", "105252.093000", "105252.096000", "105252.099000", "105252.102000", "105252.104000", "105252.112000", "105252.115000", "105252.118000", "105252.121000", "105252.124000", "105252.127000", "105252.130000", "105252.133000", "105252.136000", "105252.138000", "105252.141000", "105252.148000", "105252.151000", "105252.154000", "105252.157000", "105252.160000", "105252.163000", "105252.165000", "105252.168000", "105252.171000", "105252.174000", "105312.044000", "105312.047000", "105312.050000", "105312.053000", "105312.055000", "105312.058000", "105312.061000", "105312.064000", "105312.067000", "105312.069000", "105312.072000", "105312.075000", "105312.078000", "105312.081000", "105312.083000", "105312.086000", "105312.089000", "105312.092000", "105312.095000", "105312.098000", "105332.044000", "105332.051000", "105332.054000", "105332.057000", "105332.060000", "105332.062000", "105332.065000", "105332.068000", "105332.071000", "105332.074000", "105332.076000", "105332.079000", "105332.082000", "105332.085000", "105332.088000", "105332.091000", "105332.094000", "105332.096000", "105332.099000", "105332.102000", "105352.044000", "105352.047000", "105352.050000", "105352.057000", "105352.060000", "105352.062000", "105352.065000", "105352.068000", "105352.071000", "105352.074000", "105352.076000", "105352.079000", "105352.082000", "105352.085000", "105352.088000", "105352.090000", "105352.093000", "105352.096000", "105352.099000", "105352.102000", "105412.044000", "105412.047000", "105412.050000", "105412.053000", "105412.055000", "105412.058000", "105412.061000", "105412.064000", "105412.067000", "105412.069000", "105412.072000", "105412.075000", "105412.078000", "105412.081000", "105412.083000", "105412.086000", "105412.095000", "105412.098000", "105412.100000", "105412.103000", "105452.043000", "105452.046000", "105452.049000", "105452.052000", "105452.054000", "105452.066000", "105452.069000", "105452.071000", "105452.074000", "105452.077000", "105452.080000", "105452.083000", "105452.086000", "105452.089000", "105452.092000", "105452.095000", "105452.097000", "105452.100000", "105452.103000", "105452.106000", "105452.109000", "105452.112000", "105452.115000", "105452.118000", "105452.120000", "105452.123000", "105532.044000", "105532.047000", "105532.050000", "105532.053000", "105532.055000", "105532.058000", "105532.061000", "105532.064000", "105532.067000", "105532.070000", "105532.073000", "105532.076000", "105532.079000", "105532.081000", "105532.084000", "105532.087000", "105532.090000", "105532.093000", "105532.096000", "105532.099000", "105532.102000", "105532.104000", "105532.107000", "105532.110000", "105532.113000", "105532.116000", "105532.118000", "105612.044000", "105612.047000", "105612.050000", "105612.053000", "105612.056000", "105612.059000", "105612.062000", "105612.065000", "105612.067000", "105612.070000", "105612.073000", "105612.076000", "105612.079000", "105612.081000", "105612.084000", "105612.087000", "105612.090000", "105612.093000", "105612.096000", "105612.099000", "105612.101000", "105612.104000", "105612.107000", "105612.110000", "105612.113000", "105612.116000", "105612.118000", "105652.043000", "105652.046000", "105652.049000", "105652.052000", "105652.055000", "105652.057000", "105652.060000", "105652.063000", "105652.066000", "105652.069000", "105652.072000", "105652.075000", "105652.077000", "105652.080000", "105652.083000", "105652.086000", "105652.089000", "105652.092000", "105652.094000", "105652.097000", "105652.108000", "105652.111000", "105652.114000", "105652.117000", "105652.119000", "105652.122000", "105652.125000", "105732.044000", "105732.047000", "105732.050000", "105732.053000", "105732.056000", "105732.058000", "105732.061000", "105732.064000", "105732.067000", "105732.070000", "105732.072000", "105732.075000", "105732.078000", "105732.081000", "105732.084000", "105732.087000", "105732.089000", "105732.092000", "105732.095000", "105732.098000", "105732.101000", "105732.104000", "105732.106000", "105732.109000", "105732.112000", "105732.115000", "105732.118000", "105812.044000", "105812.047000", "105812.050000", "105812.053000", "105812.056000", "105812.058000", "105812.061000", "105812.064000", "105812.067000", "105812.070000", "105812.072000", "105812.075000", "105812.078000", "105812.081000", "105812.084000", "105812.087000", "105812.089000", "105812.092000", "105812.095000", "105812.098000", "105812.101000", "105812.104000", "105812.106000", "105812.109000", "105812.112000", "105812.115000", "105812.118000", "105852.044000", "105852.048000", "105852.051000", "105852.054000", "105852.057000", "105852.060000", "105852.063000", "105852.065000", "105852.069000", "105852.071000", "105852.074000", "105852.077000", "105852.080000", "105852.083000", "105852.086000", "105852.088000", "105852.091000", "105852.094000", "105852.097000", "105852.100000", "105852.103000", "105852.105000", "105852.108000", "105852.111000", "105852.114000", "105852.117000", "105932.043000", "105932.046000", "105932.049000", "105932.052000", "105932.055000", "105932.057000", "105932.060000", "105932.063000", "105932.066000", "105932.069000", "105932.081000", "105932.084000", "105932.086000", "105932.089000", "105932.092000", "105932.095000", "105932.098000", "105932.101000", "105932.104000", "105932.106000", "105932.109000", "105932.112000", "105932.115000", "105932.118000", "105932.121000", "105932.124000", "105932.126000", "110012.044000", "110012.047000", "110012.050000", "110012.053000", "110012.056000", "110012.058000", "110012.061000", "110012.064000", "110012.067000", "110012.070000", "110012.072000", "110012.075000", "110012.078000", "110012.081000", "110012.084000", "110012.087000", "110012.090000", "110012.092000", "110012.095000", "110012.098000", "110012.101000", "110012.104000", "110012.107000", "110012.109000", "110012.112000", "110012.115000", "110012.133000", "110052.044000", "110052.052000", "110052.055000", "110052.058000", "110052.061000", "110052.064000", "110052.067000", "110052.070000", "110052.072000", "110052.075000", "110052.078000", "110052.081000", "110052.084000", "110052.087000", "110052.090000", "110052.093000", "110052.096000", "110052.098000", "110052.101000", "110052.104000", "110052.107000", "110052.110000", "110052.113000", "110052.115000", "110052.118000", "110052.121000", "110052.124000", "110132.043000", "110132.046000", "110132.049000", "110132.052000", "110132.068000", "110132.071000", "110132.074000", "110132.077000", "110132.080000", "110132.082000", "110132.085000", "110132.088000", "110132.091000", "110132.094000", "110132.097000", "110132.100000", "110132.102000", "110132.105000", "110132.108000", "110132.111000", "110132.114000", "110132.116000", "110132.119000", "110132.122000", "110132.125000", "110132.128000", "110132.131000", "110212.044000", "110212.047000", "110212.050000", "110212.053000", "110212.056000", "110212.059000", "110212.062000", "110212.065000", "110212.067000", "110212.070000", "110212.073000", "110212.076000", "110212.079000", "110212.082000", "110212.085000", "110212.088000", "110212.090000", "110212.093000", "110212.096000", "110212.099000", "110212.102000", "110212.104000", "110212.107000", "110212.110000", "110212.113000", "110212.116000", "110212.119000", "110238.238000", "110238.241000", "110238.244000", "110238.247000", "110238.250000", "110238.253000", "110238.255000", "110238.258000", "110238.261000", "110238.264000", "110238.267000", "110238.270000", "110238.273000", "110238.276000", "110238.279000", "110238.282000", "110238.285000"],
