{
  "AcquisitionMatrixPE": 104,
  "AcquisitionNumber": 1,
  "AcquisitionTime": "10:18:18.180000",
  "BandwidthPerPixelPhaseEncode": 17.17,
  "BaseResolution": 104,
  "BodyPartExamined": "BRAIN",
  "CoilString": "HC1-7;NC1_2",
  "ConsistencyInfo": "N4_VE11C_LATEST_20160120",
  "ConversionSoftware": "dcm2niix",
  "ConversionSoftwareVersion": "v1.0.20190902",
  "DerivedVendorReportedEchoSpacing": 0.000560011,
  "DeviceSerialNumber": "167006",
  "DwellTime": 2.1e-06,
  "EchoTime": 0.037,
  "EchoTrainLength": 104,
  "EffectiveEchoSpacing": 0.000560011,
  "FlipAngle": 52,
  "ImageComments": "Unaliased_MB4_PE3_LB",
  "ImageOrientationPatientDICOM": [0.999182, 0.00325671, -0.0403194, -0.00976618, 0.986689, -0.162324],
  "ImageType": [
    "ORIGINAL",
    "PRIMARY",
    "M",
    "MB",
    "ND",
    "MOSAIC"
],
  "ImagingFrequency": 123.259,
  "InPlanePhaseEncodingDirectionDICOM": "COL",
  "InstitutionAddress": "Chemin_Queen-Mary_4565_Montreal_District_CA_H3W_1W5",
  "InstitutionName": "IUGM",
  "InstitutionalDepartmentName": "Department",
  "MRAcquisitionType": "2D",
  "MagneticFieldStrength": 3,
  "Manufacturer": "Siemens",
  "ManufacturersModelName": "Prisma_fit",
  "Modality": "MR",
  "MultibandAccelerationFactor": 4,
  "PartialFourier": 1,
  "PatientPosition": "HFS",
  "PercentPhaseFOV": 100,
  "PhaseEncodingDirection": "j",
  "PhaseEncodingSteps": 104,
  "PhaseResolution": 1,
  "PixelBandwidth": 2290,
  "ProcedureStepDescription": "games_shinobi",
  "ProtocolName": "func_task-shinobi_run-5",
  "PulseSequenceDetails": "%CustomerSeq%_cmrr_mbep2d_bold",
  "ReceiveCoilActiveElements": "HC1-7;NC1,2",
  "ReceiveCoilName": "HeadNeck_64",
  "ReconMatrixPE": 104,
  "RepetitionTime": 1.49,
  "SAR": 0.0291313,
  "ScanOptions": "FS",
  "ScanningSequence": "EP",
  "SequenceName": "epfid2d1_104",
  "SequenceVariant": "SK_SS",
  "SeriesDescription": "func_task-shinobi_run-5",
  "SeriesNumber": 24,
  "ShimSetting": [591, -7272, -8821, 621, -71, -315, 54, 45],
  "SliceThickness": 2,
  "SliceTiming": [0, 0.785, 0.0975, 0.8825, 0.1975, 0.98, 0.295, 1.0775, 0.3925, 1.1775, 0.49, 1.275, 0.5875, 1.3725, 0.6875, 0, 0.785, 0.0975, 0.8825, 0.1975, 0.98, 0.295, 1.0775, 0.3925, 1.1775, 0.49, 1.275, 0.5875, 1.3725, 0.6875, 0, 0.785, 0.0975, 0.8825, 0.1975, 0.98, 0.295, 1.0775, 0.3925, 1.1775, 0.49, 1.275, 0.5875, 1.3725, 0.6875, 0, 0.785, 0.0975, 0.8825, 0.1975, 0.98, 0.295, 1.0775, 0.3925, 1.1775, 0.49, 1.275, 0.5875, 1.3725, 0.6875],
  "SoftwareVersions": "syngo_MR_E11",
  "SpacingBetweenSlices": 2,
  "StationName": "MRC35049",
  "TaskName": "shinobi",
  "TotalReadoutTime": 0.0576811,
  "TxRefAmp": 216.811,
  "WipMemBlock": "59b70f88-c4b8-4444-a911-73f41c4c946e||Sequence: R016 ve11c/master r/e634e98; Dec 19 2017 11:00:25 by eja",
  "dcmmeta_affine": [
    [-1.9983630180358887, -0.019532350823283195, -0.07850810140371323, 106.37985229492188],
    [-0.006513422355055809, 1.9733781814575195, -0.32517069578170776, -77.9911880493164],
    [-0.08063875883817673, 0.3246488869190216, 1.9718266725540161, -40.27088165283203],
    [0.0, 0.0, 0.0, 1.0]
],
  "dcmmeta_reorient_transform": [
    [0.0, -1.0, 0.0, 103.0],
    [1.0, 0.0, 0.0, 0.0],
    [0.0, 0.0, 1.0, 0.0],
    [0.0, 0.0, 0.0, 1.0]
],
  "dcmmeta_shape": [104, 104, 60, 488],
  "dcmmeta_slice_dim": 2,
  "dcmmeta_version": 0.6,
  "global": {
    "const": {
      "AcquisitionMatrix": [104, 0, 0, 104],
      "AngioFlag": "N",
      "BitsAllocated": 16,
      "BitsStored": 16,
      "BodyPartExamined": "BRAIN",
      "Columns": 832,
      "EchoNumbers": 1,
      "EchoTime": 37.0,
      "EchoTrainLength": 104,
      "FlipAngle": 52.0,
      "HighBit": 15,
      "ImageOrientationPatient": [0.99918153573945, 0.00325671123187, -0.040319380815, -0.0097661757821, 0.98668910867119, -0.1623244425225],
      "ImagePositionPatient": [-824.66240244063, -845.94732297722, 140.69265570679],
      "ImageType": [
        "ORIGINAL",
        "PRIMARY",
        "M",
        "MB",
        "ND",
        "MOSAIC"
],
      "ImagedNucleus": "1H",
      "ImagingFrequency": 123.258977,
      "InPlanePhaseEncodingDirection": "COL",
      "MRAcquisitionType": "2D",
      "MagneticFieldStrength": 3.0,
      "Manufacturer": "SIEMENS",
      "ManufacturerModelName": "Prisma_fit",
      "Modality": "MR",
      "NumberOfAverages": 1.0,
      "NumberOfPhaseEncodingSteps": 104,
      "PercentPhaseFieldOfView": 100.0,
      "PercentSampling": 100.0,
      "PerformedProcedureStepStartTime": "090117.709000",
      "PhotometricInterpretation": "MONOCHROME2",
      "PixelBandwidth": 2290.0,
      "PixelRepresentation": 0,
      "PixelSpacing": [2.0, 2.0],
      "ProtocolName": "func_task-shinobi_run-5",
      "RepetitionTime": 1490.0,
      "Rows": 832,
      "SAR": 0.02913132363661,
      "SamplesPerPixel": 1,
      "ScanOptions": "FS",
      "ScanningSequence": "EP",
      "SequenceName": "epfid2d1_104",
      "SequenceVariant": [
        "SK",
        "SS"
],
      "SeriesDescription": "func_task-shinobi_run-5",
      "SeriesNumber": 24,
      "SeriesTime": "101935.486000",
      "SliceLocation": -31.199215729823,
      "SliceThickness": 2.0,
      "SmallestImagePixelValue": 0,
      "SoftwareVersions": "syngo MR E11",
      "SpacingBetweenSlices": 2.0000000251941,
      "SpecificCharacterSet": "ISO_IR 100",
      "StudyID": "1",
      "StudyTime": "090117.567000",
      "TransmitCoilName": "Body",
      "VariableFlipAngleFlag": "N",
      "WindowCenterWidthExplanation": "Algo1",
      "dBdt": 0.0},
    "slices": {}
  },
  "time": {
    "samples": {
      "AcquisitionNumber": [1, 2, 3, 4, 5, 6, 7, 8, 9, 10, 11, 12, 13, 14, 15, 16, 17, 18, 19, 20, 21, 22, 23, 24, 25, 26, 27, 28, 29, 30, 31, 32, 33, 34, 35, 36, 37, 38, 39, 40, 41, 42, 43, 44, 45, 46, 47, 48, 49, 50, 51, 52, 53, 54, 55, 56, 57, 58, 59, 60, 61, 62, 63, 64, 65, 66, 67, 68, 69, 70, 71, 72, 73, 74, 75, 76, 77, 78, 79, 80, 81, 82, 83, 84, 85, 86, 87, 88, 89, 90, 91, 92, 93, 94, 95, 96, 97, 98, 99, 100, 101, 102, 103, 104, 105, 106, 107, 108, 109, 110, 111, 112, 113, 114, 115, 116, 117, 118, 119, 120, 121, 122, 123, 124, 125, 126, 127, 128, 129, 130, 131, 132, 133, 134, 135, 136, 137, 138, 139, 140, 141, 142, 143, 144, 145, 146, 147, 148, 149, 150, 151, 152, 153, 154, 155, 156, 157, 158, 159, 160, 161, 162, 163, 164, 165, 166, 167, 168, 169, 170, 171, 172, 173, 174, 175, 176, 177, 178, 179, 180, 181, 182, 183, 184, 185, 186, 187, 188, 189, 190, 191, 192, 193, 194, 195, 196, 197, 198, 199, 200, 201, 202, 203, 204, 205, 206, 207, 208, 209, 210, 211, 212, 213, 214, 215, 216, 217, 218, 219, 220, 221, 222, 223, 224, 225, 226, 227, 228, 229, 230, 231, 232, 233, 234, 235, 236, 237, 238, 239, 240, 241, 242, 243, 244, 245, 246, 247, 248, 249, 250, 251, 252, 253, 254, 255, 256, 257, 258, 259, 260, 261, 262, 263, 264, 265, 266, 267, 268, 269, 270, 271, 272, 273, 274, 275, 276, 277, 278, 279, 280, 281, 282, 283, 284, 285, 286, 287, 288, 289, 290, 291, 292, 293, 294, 295, 296, 297, 298, 299, 300, 301, 302, 303, 304, 305, 306, 307, 308, 309, 310, 311, 312, 313, 314, 315, 316, 317, 318, 319, 320, 321, 322, 323, 324, 325, 326, 327, 328, 329, 330, 331, 332, 333, 334, 335, 336, 337, 338, 339, 340, 341, 342, 343, 344, 345, 346, 347, 348, 349, 350, 351, 352, 353, 354, 355, 356, 357, 358, 359, 360, 361, 362, 363, 364, 365, 366, 367, 368, 369, 370, 371, 372, 373, 374, 375, 376, 377, 378, 379, 380, 381, 382, 383, 384, 385, 386, 387, 388, 389, 390, 391, 392, 393, 394, 395, 396, 397, 398, 399, 400, 401, 402, 403, 404, 405, 406, 407, 408, 409, 410, 411, 412, 413, 414, 415, 416, 417, 418, 419, 420, 421, 422, 423, 424, 425, 426, 427, 428, 429, 430, 431, 432, 433, 434, 435, 436, 437, 438, 439, 440, 441, 442, 443, 444, 445, 446, 447, 448, 449, 450, 451, 452, 453, 454, 455, 456, 457, 458, 459, 460, 461, 462, 463, 464, 465, 466, 467, 468, 469, 470, 471, 472, 473, 474, 475, 476, 477, 478, 479, 480, 481, 482, 483, 484, 485, 486, 487, 488],
      "AcquisitionTime": ["101818.180000", "101819.670000", "101821.160000", "101822.650000", "101824.140000", "101825.630000", "101827.120000", "101828.610000", "101830.100000", "101831.590000", "101833.080000", "101834.570000", "101836.060000", "101837.550000", "101839.040000", "101840.530000", "101842.020000", "101843.510000", "101845.000000", "101846.490000", "101847.980000", "101849.470000", "101850.960000", "101852.450000", "101853.940000", "101855.430000", "101856.920000", "101858.410000", "101859.900000", "101901.390000", "101902.880000", "101904.370000", "101905.860000", "101907.350000", "101908.840000", "101910.330000", "101911.820000", "101913.310000", "101914.800000", "101916.290000", "101917.780000", "101919.270000", "101920.760000", "101922.250000", "101923.740000", "101925.230000", "101926.720000", "101928.210000", "101929.700000", "101931.190000", "101932.680000", "101934.170000", "101935.660000", "101937.150000", "101938.640000", "101940.130000", "101941.620000", "101943.110000", "101944.600000", "101946.090000", "101947.580000", "101949.070000", "101950.560000", "101952.050000", "101953.540000", "101955.030000", "101956.520000", "101958.010000", "101959.500000", "102000.990000", "102002.480000", "102003.970000", "102005.460000", "102006.950000", "102008.440000", "102009.930000", "102011.420000", "102012.910000", "102014.400000", "102015.890000", "102017.380000", "102018.870000", "102020.360000", "102021.850000", "102023.340000", "102024.830000", "102026.320000", "102027.810000", "102029.300000", "102030.790000", "102032.280000", "102033.770000", "102035.260000", "102036.750000", "102038.240000", "102039.730000", "102041.220000", "102042.710000", "102044.200000", "102045.690000", "102047.180000", "102048.670000", "102050.160000", "102051.650000", "102053.140000", "102054.630000", "102056.120000", "102057.610000", "102059.100000", "102100.590000", "102102.080000", "102103.570000", "102105.060000", "102106.550000", "102108.040000", "102109.530000", "102111.020000", "102112.510000", "102114.000000", "102115.490000", "102116.980000", "102118.470000", "102119.960000", "102121.450000", "102122.940000", "102124.430000", "102125.920000", "102127.410000", "102128.900000", "102130.390000", "102131.880000", "102133.370000", "102134.860000", "102136.350000", "102137.840000", "102139.330000", "102140.820000", "102142.310000", "102143.800000", "102145.290000", "102146.780000", "102148.270000", "102149.760000", "102151.250000", "102152.740000", "102154.230000", "102155.720000", "102157.210000", "102158.700000", "102200.190000", "102201.680000", "102203.170000", "102204.660000", "102206.150000", "102207.640000", "102209.130000", "102210.620000", "102212.110000", "102213.600000", "102215.090000", "102216.580000", "102218.070000", "102219.560000", "102221.050000", "102222.540000", "102224.030000", "102225.520000", "102227.010000", "102228.500000", "102229.990000", "102231.480000", "102232.970000", "102234.460000", "102235.950000", "102237.440000", "102238.930000", "102240.420000", "102241.910000", "102243.400000", "102244.890000", "102246.380000", "102247.870000", "102249.360000", "102250.850000", "102252.340000", "102253.830000", "102255.320000", "102256.810000", "102258.300000", "102259.790000", "102301.280000", "102302.770000", "102304.260000", "102305.750000", "102307.240000", "102308.730000", "102310.220000", "102311.710000", "102313.200000", "102314.690000", "102316.180000", "102317.670000", "102319.160000", "102320.650000", "102322.140000", "102323.630000", "102325.120000", "102326.610000", "102328.100000", "102329.590000", "102331.080000", "102332.570000", "102334.060000", "102335.550000", "102337.040000", "102338.530000", "102340.020000", "102341.510000", "102343.000000", "102344.490000", "102345.980000", "102347.470000", "102348.960000", "102350.450000", "102351.940000", "102353.430000", "102354.920000", "102356.410000", "102357.900000", "102359.390000", "102400.880000", "102402.370000", "102403.860000", "102405.350000", "102406.840000", "102408.330000", "102409.820000", "102411.310000", "102412.800000", "102414.290000", "102415.780000", "102417.270000", "102418.760000", "102420.250000", "102421.740000", "102423.230000", "102424.720000", "102426.210000", "102427.700000", "102429.190000", "102430.680000", "102432.170000", "102433.660000", "102435.150000", "102436.640000", "102438.130000", "102439.620000", "102441.110000", "102442.600000", "102444.090000", "102445.580000", "102447.070000", "102448.560000", "102450.050000", "102451.540000", "102453.030000", "102454.520000", "102456.010000", "102457.500000", "102458.990000", "102500.480000", "102501.970000", "102503.460000", "102504.950000", "102506.440000", "102507.930000", "102509.420000", "102510.910000", "102512.400000", "102513.890000", "102515.380000", "102516.870000", "102518.360000", "102519.850000", "102521.340000", "102522.830000", "102524.320000", "102525.810000", "102527.300000", "102528.790000", "102530.280000", "102531.770000", "102533.260000", "102534.750000", "102536.240000", "102537.730000", "102539.220000", "102540.710000", "102542.200000", "102543.690000", "102545.180000", "102546.670000", "102548.160000", "102549.650000", "102551.140000", "102552.630000", "102554.120000", "102555.610000", "102557.100000", "102558.590000", "102600.080000", "102601.570000", "102603.060000", "102604.550000", "102606.040000", "102607.530000", "102609.020000", "102610.510000", "102612.000000", "102613.490000", "102614.980000", "102616.470000", "102617.960000", "102619.450000", "102620.940000", "102622.430000", "102623.920000", "102625.410000", "102626.900000", "102628.390000", "102629.880000", "102631.370000", "102632.860000", "102634.350000", "102635.840000", "102637.330000", "102638.820000", "102640.310000", "102641.800000", "102643.290000", "102644.780000", "102646.270000", "102647.760000", "102649.250000", "102650.740000", "102652.230000", "102653.720000", "102655.210000", "102656.700000", "102658.190000", "102659.680000", "102701.170000", "102702.660000", "102704.150000", "102705.640000", "102707.130000", "102708.620000", "102710.110000", "102711.600000", "102713.090000", "102714.580000", "102716.070000", "102717.560000", "102719.050000", "102720.540000", "102722.030000", "102723.520000", "102725.010000", "102726.500000", "102727.990000", "102729.480000", "102730.970000", "102732.460000", "102733.950000", "102735.440000", "102736.930000", "102738.420000", "102739.910000", "102741.400000", "102742.890000", "102744.380000", "102745.870000", "102747.360000", "102748.850000", "102750.340000", "102751.830000", "102753.320000", "102754.810000", "102756.300000", "102757.790000", "102759.280000", "102800.770000", "102802.260000", "102803.750000", "102805.240000", "102806.730000", "102808.220000", "102809.710000", "102811.200000", "102812.690000", "102814.180000", "102815.670000", "102817.160000", "102818.650000", "102820.140000", "102821.630000", "102823.120000", "102824.610000", "102826.100000", "102827.590000", "102829.080000", "102830.570000", "102832.060000", "102833.550000", "102835.040000", "102836.530000", "102838.020000", "102839.510000", "102841.000000", "102842.490000", "102843.980000", "102845.470000", "102846.960000", "102848.450000", "102849.940000", "102851.430000", "102852.920000", "102854.410000", "102855.900000", "102857.390000", "102858.880000", "102900.370000", "102901.860000", "102903.350000", "102904.840000", "102906.330000", "102907.820000", "102909.310000", "102910.800000", "102912.290000", "102913.780000", "102915.270000", "102916.760000", "102918.250000", "102919.740000", "102921.230000", "102922.720000", "102924.210000", "102925.700000", "102927.190000", "102928.680000", "102930.170000", "102931.660000", "102933.150000", "102934.640000", "102936.130000", "102937.620000", "102939.110000", "102940.600000", "102942.090000", "102943.580000", "102945.070000", "102946.560000", "102948.050000", "102949.540000", "102951.030000", "102952.520000", "102954.010000", "102955.500000", "102956.990000", "102958.480000", "102959.970000", "103001.460000", "103002.950000", "103004.440000", "103005.930000", "103007.420000", "103008.910000", "103010.400000", "103011.890000", "103013.380000", "103014.870000", "103016.360000", "103017.850000", "103019.340000", "103020.830000", "103022.320000", "103023.810000"],
      "ContentTime": ["101935.489000", "101935.505000", "101935.508000", "101935.511000", "101935.514000", "101935.517000", "101935.520000", "101935.523000", "101935.526000", "101935.529000", "101935.532000", "101935.544000", "101935.547000", "101935.550000", "101935.553000", "101935.556000", "101935.559000", "101935.562000", "101935.565000", "101935.568000", "101935.571000", "101935.574000", "101935.577000", "101935.580000", "101955.453000", "101955.456000", "101955.459000", "101955.462000", "101955.465000", "101955.468000", "101955.471000", "101955.474000", "101955.477000", "101955.480000", "101955.483000", "101955.486000", "101955.489000", "101955.491000", "101955.494000", "101955.497000", "101955.500000", "101955.503000", "101955.506000", "101955.509000", "102015.453000", "102015.456000", "102015.459000", "102015.462000", "102015.465000", "102015.468000", "102015.471000", "102015.474000", "102015.477000", "102015.480000", "102015.483000", "102015.486000", "102015.489000", "102015.492000", "102015.495000", "102015.498000", "102015.504000", "102015.507000", "102015.510000", "102015.513000", "102015.516000", "102035.454000", "102035.457000", "102035.460000", "102035.463000", "102035.466000", "102035.469000", "102035.472000", "102035.490000", "102035.492000", "102035.495000", "102035.498000", "102035.501000", "102035.504000", "102035.507000", "102035.510000", "102035.513000", "102035.516000", "102035.519000", "102035.522000", "102035.525000", "102055.454000", "102055.457000", "102055.460000", "102055.463000", "102055.466000", "102055.469000", "102055.472000", "102055.475000", "102055.478000", "102055.481000", "102055.484000", "102055.487000", "102055.490000", "102055.493000", "102055.496000", "102055.499000", "102055.502000", "102055.505000", "102055.507000", "102055.510000", "102135.453000", "102135.456000", "102135.459000", "102135.462000", "102135.465000", "102135.468000", "102135.471000", "102135.474000", "102135.477000", "102135.480000", "102135.483000", "102135.486000", "102135.489000", "102135.492000", "102135.495000", "102135.498000", "102135.501000", "102135.504000", "102135.507000", "102135.510000", "102135.513000", "102135.518000", "102135.521000", "102135.524000", "102135.527000", "102135.530000", "102135.533000", "102215.453000", "102215.456000", "102215.459000", "102215.462000", "102215.465000", "102215.468000", "102215.471000", "102215.474000", "102215.477000", "102215.480000", "102215.483000", "102215.486000", "102215.499000", "102215.502000", "102215.505000", "102215.508000", "102215.511000", "102215.514000", "102215.517000", "102215.519000", "102215.523000", "102215.525000", "102215.528000", "102215.531000", "102215.534000", "102215.537000", "102215.540000", "102255.454000", "102255.458000", "102255.461000", "102255.464000", "102255.466000", "102255.470000", "102255.473000", "102255.477000", "102255.480000", "102255.483000", "102255.486000", "102255.489000", "102255.492000", "102255.495000", "102255.498000", "102255.501000", "102255.504000", "102255.507000", "102255.510000", "102255.513000", "102255.516000", "102255.519000", "102255.522000", "102255.525000", "102255.528000", "102255.531000", "102335.453000", "102335.456000", "102335.459000", "102335.462000", "102335.465000", "102335.468000", "102335.471000", "102335.474000", "102335.477000", "102335.480000", "102335.483000", "102335.486000", "102335.489000", "102335.492000", "102335.495000", "102335.512000", "102335.515000", "102335.518000", "102335.521000", "102335.524000", "102335.527000", "102335.530000", "102335.533000", "102335.536000", "102335.539000", "102335.542000", "102335.545000", "102415.453000", "102415.456000", "102415.459000", "102415.462000", "102415.465000", "102415.468000", "102415.471000", "102415.474000", "102415.477000", "102415.480000", "102415.483000", "102415.486000", "102415.489000", "102415.492000", "102415.495000", "102415.498000", "102415.501000", "102415.504000", "102415.507000", "102415.510000", "102415.513000", "102415.516000", "102415.519000", "102415.521000", "102415.524000", "102415.527000", "102415.530000", "102455.453000", "102455.456000", "102455.459000", "102455.462000", "102455.465000", "102455.468000", "102455.471000", "102455.474000", "102455.477000", "102455.480000", "102455.483000", "102455.486000", "102455.489000", "102455.492000", "102455.495000", "102455.498000", "102455.501000", "102455.504000", "102455.507000", "102455.510000", "102455.513000", "102455.516000", "102455.518000", "102455.521000", "102455.524000", "102455.527000", "102455.530000", "102535.454000", "102535.457000", "102535.476000", "102535.479000", "102535.482000", "102535.485000", "102535.488000", "102535.491000", "102535.494000", "102535.497000", "102535.500000", "102535.503000", "102535.506000", "102535.509000", "102535.512000", "102535.515000", "102535.518000", "102535.521000", "102535.524000", "102535.527000", "102535.530000", "102535.533000", "102535.536000", "102535.538000", "102535.541000", "102535.544000", "102535.547000", "102615.453000", "102615.456000", "102615.459000", "102615.462000", "102615.465000", "102615.468000", "102615.471000", "102615.474000", "102615.477000", "102615.480000", "102615.483000", "102615.486000", "102615.489000", "102615.492000", "102615.495000", "102615.498000", "102615.501000", "102615.504000", "102615.507000", "102615.510000", "102615.513000", "102615.516000", "102615.519000", "102615.522000", "102615.525000", "102615.528000", "102615.530000", "102655.453000", "102655.456000", "102655.459000", "102655.462000", "102655.465000", "102655.468000", "102655.471000", "102655.474000", "102655.477000", "102655.480000", "102655.483000", "102655.486000", "102655.489000", "102655.492000", "102655.495000", "102655.498000", "102655.501000", "102655.504000", "102655.507000", "102655.510000", "102655.513000", "102655.516000", "102655.519000", "102655.522000", "102655.525000", "102655.528000", "102655.531000", "102735.454000", "102735.458000", "102735.461000", "102735.464000", "102735.467000", "102735.470000", "102735.473000", "102735.476000", "102735.479000", "102735.482000", "102735.485000", "102735.488000", "102735.491000", "102735.494000", "102735.497000", "102735.500000", "102735.503000", "102735.519000", "102735.522000", "102735.525000", "102735.528000", "102735.531000", "102735.534000", "102735.537000", "102735.540000", "102735.543000", "102815.453000", "102815.456000", "102815.478000", "102815.481000", "102815.484000", "102815.487000", "102815.490000", "102815.493000", "102815.496000", "102815.499000", "102815.502000", "102815.505000", "102815.508000", "102815.511000", "102815.514000", "102815.517000", "102815.520000", "102815.523000", "102815.526000", "102815.529000", "102815.532000", "102815.535000", "102815.538000", "102815.541000", "102815.544000", "102815.547000", "102815.550000", "102855.453000", "102855.456000", "102855.459000", "102855.462000", "102855.465000", "102855.468000", "102855.471000", "102855.474000", "102855.477000", "102855.480000", "102855.483000", "102855.486000", "102855.489000", "102855.492000", "102855.495000", "102855.498000", "102855.501000", "102855.504000", "102855.507000", "102855.510000", "102855.513000", "102855.516000", "102855.519000", "102855.522000", "102855.525000", "102855.528000", "102855.531000", "102935.453000", "102935.456000", "102935.459000", "102935.462000", "102935.465000", "102935.468000", "102935.471000", "102935.474000", "102935.477000", "102935.480000", "102935.483000", "102935.486000", "102935.489000", "102935.492000", "102935.495000", "102935.499000", "102935.501000", "102935.504000", "102935.507000", "102935.510000", "102935.513000", "102935.516000", "102935.519000", "102935.522000", "102935.525000", "102935.528000", "102935.531000", "103015.454000", "103015.457000", "103015.460000", "103015.463000", "103015.466000", "103015.469000", "103015.472000", "103015.475000", "103015.478000", "103015.481000", "103015.484000", "103015.487000", "103015.490000", "103015.493000", "103015.496000", "103015.499000", "103015.502000", "103015.505000", "103015.508000", "103015.511000", "103015.514000", "103015.517000", "103015.520000", "103015.523000", "103015.526000", "103015.529000", "103015.532000", "103026.166000", "103026.169000", "103026.172000", "103026.175000", "103026.178000", "103026.181000", "103026.184000"],
