{
  "AcquisitionMatrixPE": 104,
  "AcquisitionNumber": 1,
  "AcquisitionTime": "10:06:31.997500",
  "BandwidthPerPixelPhaseEncode": 17.17,
  "BaseResolution": 104,
  "BodyPartExamined": "BRAIN",
  "CoilString": "HC1-7;NC1_2",
  "ConsistencyInfo": "N4_VE11C_LATEST_20160120",
  "ConversionSoftware": "dcm2niix",
  "ConversionSoftwareVersion": "v1.0.20190902",
  "DerivedVendorReportedEchoSpacing": 0.000560011,
  "DeviceSerialNumber": "167006",
  "DwellTime": 2.1e-06,
  "EchoTime": 0.037,
  "EchoTrainLength": 104,
  "EffectiveEchoSpacing": 0.000560011,
  "FlipAngle": 52,
  "ImageComments": "Unaliased_MB4_PE3_LB",
  "ImageOrientationPatientDICOM": [0.999182, 0.00325671, -0.0403194, -0.00976618, 0.986689, -0.162324],
  "ImageType": [
    "ORIGINAL",
    "PRIMARY",
    "M",
    "MB",
    "ND",
    "MOSAIC"
],
  "ImagingFrequency": 123.259,
  "InPlanePhaseEncodingDirectionDICOM": "COL",
  "InstitutionAddress": "Chemin_Queen-Mary_4565_Montreal_District_CA_H3W_1W5",
  "InstitutionName": "IUGM",
  "InstitutionalDepartmentName": "Department",
  "MRAcquisitionType": "2D",
  "MagneticFieldStrength": 3,
  "Manufacturer": "Siemens",
  "ManufacturersModelName": "Prisma_fit",
  "Modality": "MR",
  "MultibandAccelerationFactor": 4,
  "PartialFourier": 1,
  "PatientPosition": "HFS",
  "PercentPhaseFOV": 100,
  "PhaseEncodingDirection": "j",
  "PhaseEncodingSteps": 104,
  "PhaseResolution": 1,
  "PixelBandwidth": 2290,
  "ProcedureStepDescription": "games_shinobi",
  "ProtocolName": "func_task-shinobi_run-4",
  "PulseSequenceDetails": "%CustomerSeq%_cmrr_mbep2d_bold",
  "ReceiveCoilActiveElements": "HC1-7;NC1,2",
  "ReceiveCoilName": "HeadNeck_64",
  "ReconMatrixPE": 104,
  "RepetitionTime": 1.49,
  "SAR": 0.0291313,
  "ScanOptions": "FS",
  "ScanningSequence": "EP",
  "SequenceName": "epfid2d1_104",
  "SequenceVariant": "SK_SS",
  "SeriesDescription": "func_task-shinobi_run-4",
  "SeriesNumber": 22,
  "ShimSetting": [591, -7272, -8821, 621, -71, -315, 54, 45],
  "SliceThickness": 2,
  "SliceTiming": [0, 0.785, 0.0975, 0.8825, 0.195, 0.98, 0.295, 1.0775, 0.3925, 1.175, 0.49, 1.275, 0.5875, 1.3725, 0.685, 0, 0.785, 0.0975, 0.8825, 0.195, 0.98, 0.295, 1.0775, 0.3925, 1.175, 0.49, 1.275, 0.5875, 1.3725, 0.685, 0, 0.785, 0.0975, 0.8825, 0.195, 0.98, 0.295, 1.0775, 0.3925, 1.175, 0.49, 1.275, 0.5875, 1.3725, 0.685, 0, 0.785, 0.0975, 0.8825, 0.195, 0.98, 0.295, 1.0775, 0.3925, 1.175, 0.49, 1.275, 0.5875, 1.3725, 0.685],
  "SoftwareVersions": "syngo_MR_E11",
  "SpacingBetweenSlices": 2,
  "StationName": "MRC35049",
  "TaskName": "shinobi",
  "TotalReadoutTime": 0.0576811,
  "TxRefAmp": 216.811,
  "WipMemBlock": "7f2f2a3f-39b2-44cf-9b33-286f9d16b74f||Sequence: R016 ve11c/master r/e634e98; Dec 19 2017 11:00:25 by eja",
  "dcmmeta_affine": [
    [-1.9983630180358887, -0.019532350823283195, -0.07850810140371323, 106.37985229492188],
    [-0.006513422355055809, 1.9733781814575195, -0.32517069578170776, -77.9911880493164],
    [-0.08063875883817673, 0.3246488869190216, 1.9718266725540161, -40.27088165283203],
    [0.0, 0.0, 0.0, 1.0]
],
  "dcmmeta_reorient_transform": [
    [0.0, -1.0, 0.0, 103.0],
    [1.0, 0.0, 0.0, 0.0],
    [0.0, 0.0, 1.0, 0.0],
    [0.0, 0.0, 0.0, 1.0]
],
  "dcmmeta_shape": [104, 104, 60, 443],
  "dcmmeta_slice_dim": 2,
  "dcmmeta_version": 0.6,
  "global": {
    "const": {
      "AcquisitionMatrix": [104, 0, 0, 104],
      "AngioFlag": "N",
      "BitsAllocated": 16,
      "BitsStored": 16,
      "BodyPartExamined": "BRAIN",
      "Columns": 832,
      "EchoNumbers": 1,
      "EchoTime": 37.0,
      "EchoTrainLength": 104,
      "FlipAngle": 52.0,
      "HighBit": 15,
      "ImageOrientationPatient": [0.99918153573945, 0.00325671123187, -0.040319380815, -0.0097661757821, 0.98668910867119, -0.1623244425225],
      "ImagePositionPatient": [-824.66240244063, -845.94732297722, 140.69265570679],
      "ImageType": [
        "ORIGINAL",
        "PRIMARY",
        "M",
        "MB",
        "ND",
        "MOSAIC"
],
      "ImagedNucleus": "1H",
      "ImagingFrequency": 123.258972,
      "InPlanePhaseEncodingDirection": "COL",
      "MRAcquisitionType": "2D",
      "MagneticFieldStrength": 3.0,
      "Manufacturer": "SIEMENS",
      "ManufacturerModelName": "Prisma_fit",
      "Modality": "MR",
      "NumberOfAverages": 1.0,
      "NumberOfPhaseEncodingSteps": 104,
      "PercentPhaseFieldOfView": 100.0,
      "PercentSampling": 100.0,
      "PerformedProcedureStepStartTime": "090117.709000",
      "PhotometricInterpretation": "MONOCHROME2",
      "PixelBandwidth": 2290.0,
      "PixelRepresentation": 0,
      "PixelSpacing": [2.0, 2.0],
      "ProtocolName": "func_task-shinobi_run-4",
      "RepetitionTime": 1490.0,
      "Rows": 832,
      "SAR": 0.02913132363661,
      "SamplesPerPixel": 1,
      "ScanOptions": "FS",
      "ScanningSequence": "EP",
      "SequenceName": "epfid2d1_104",
      "SequenceVariant": [
        "SK",
        "SS"
],
      "SeriesDescription": "func_task-shinobi_run-4",
      "SeriesNumber": 22,
      "SeriesTime": "100731.614000",
      "SliceLocation": -31.199215729823,
      "SliceThickness": 2.0,
      "SmallestImagePixelValue": 0,
      "SoftwareVersions": "syngo MR E11",
      "SpacingBetweenSlices": 2.0000000251941,
      "SpecificCharacterSet": "ISO_IR 100",
      "StudyID": "1",
      "StudyTime": "090117.567000",
      "TransmitCoilName": "Body",
      "VariableFlipAngleFlag": "N",
      "WindowCenterWidthExplanation": "Algo1",
      "dBdt": 0.0},
    "slices": {}
  },
  "time": {
    "samples": {
      "AcquisitionNumber": [1, 2, 3, 4, 5, 6, 7, 8, 9, 10, 11, 12, 13, 14, 15, 16, 17, 18, 19, 20, 21, 22, 23, 24, 25, 26, 27, 28, 29, 30, 31, 32, 33, 34, 35, 36, 37, 38, 39, 40, 41, 42, 43, 44, 45, 46, 47, 48, 49, 50, 51, 52, 53, 54, 55, 56, 57, 58, 59, 60, 61, 62, 63, 64, 65, 66, 67, 68, 69, 70, 71, 72, 73, 74, 75, 76, 77, 78, 79, 80, 81, 82, 83, 84, 85, 86, 87, 88, 89, 90, 91, 92, 93, 94, 95, 96, 97, 98, 99, 100, 101, 102, 103, 104, 105, 106, 107, 108, 109, 110, 111, 112, 113, 114, 115, 116, 117, 118, 119, 120, 121, 122, 123, 124, 125, 126, 127, 128, 129, 130, 131, 132, 133, 134, 135, 136, 137, 138, 139, 140, 141, 142, 143, 144, 145, 146, 147, 148, 149, 150, 151, 152, 153, 154, 155, 156, 157, 158, 159, 160, 161, 162, 163, 164, 165, 166, 167, 168, 169, 170, 171, 172, 173, 174, 175, 176, 177, 178, 179, 180, 181, 182, 183, 184, 185, 186, 187, 188, 189, 190, 191, 192, 193, 194, 195, 196, 197, 198, 199, 200, 201, 202, 203, 204, 205, 206, 207, 208, 209, 210, 211, 212, 213, 214, 215, 216, 217, 218, 219, 220, 221, 222, 223, 224, 225, 226, 227, 228, 229, 230, 231, 232, 233, 234, 235, 236, 237, 238, 239, 240, 241, 242, 243, 244, 245, 246, 247, 248, 249, 250, 251, 252, 253, 254, 255, 256, 257, 258, 259, 260, 261, 262, 263, 264, 265, 266, 267, 268, 269, 270, 271, 272, 273, 274, 275, 276, 277, 278, 279, 280, 281, 282, 283, 284, 285, 286, 287, 288, 289, 290, 291, 292, 293, 294, 295, 296, 297, 298, 299, 300, 301, 302, 303, 304, 305, 306, 307, 308, 309, 310, 311, 312, 313, 314, 315, 316, 317, 318, 319, 320, 321, 322, 323, 324, 325, 326, 327, 328, 329, 330, 331, 332, 333, 334, 335, 336, 337, 338, 339, 340, 341, 342, 343, 344, 345, 346, 347, 348, 349, 350, 351, 352, 353, 354, 355, 356, 357, 358, 359, 360, 361, 362, 363, 364, 365, 366, 367, 368, 369, 370, 371, 372, 373, 374, 375, 376, 377, 378, 379, 380, 381, 382, 383, 384, 385, 386, 387, 388, 389, 390, 391, 392, 393, 394, 395, 396, 397, 398, 399, 400, 401, 402, 403, 404, 405, 406, 407, 408, 409, 410, 411, 412, 413, 414, 415, 416, 417, 418, 419, 420, 421, 422, 423, 424, 425, 426, 427, 428, 429, 430, 431, 432, 433, 434, 435, 436, 437, 438, 439, 440, 441, 442, 443],
      "AcquisitionTime": ["100631.997500", "100633.487500", "100634.977500", "100636.467500", "100637.957500", "100639.447500", "100640.937500", "100642.427500", "100643.917500", "100645.407500", "100646.897500", "100648.387500", "100649.877500", "100651.367500", "100652.857500", "100654.347500", "100655.837500", "100657.327500", "100658.817500", "100700.307500", "100701.797500", "100703.287500", "100704.777500", "100706.267500", "100707.757500", "100709.247500", "100710.737500", "100712.227500", "100713.717500", "100715.207500", "100716.697500", "100718.187500", "100719.677500", "100721.167500", "100722.657500", "100724.147500", "100725.637500", "100727.127500", "100728.617500", "100730.107500", "100731.597500", "100733.087500", "100734.577500", "100736.067500", "100737.557500", "100739.047500", "100740.537500", "100742.027500", "100743.517500", "100745.007500", "100746.497500", "100747.987500", "100749.477500", "100750.967500", "100752.457500", "100753.947500", "100755.437500", "100756.927500", "100758.417500", "100759.907500", "100801.397500", "100802.887500", "100804.377500", "100805.867500", "100807.357500", "100808.847500", "100810.337500", "100811.827500", "100813.317500", "100814.807500", "100816.297500", "100817.787500", "100819.277500", "100820.767500", "100822.257500", "100823.747500", "100825.237500", "100826.727500", "100828.217500", "100829.707500", "100831.197500", "100832.687500", "100834.177500", "100835.667500", "100837.157500", "100838.647500", "100840.137500", "100841.627500", "100843.117500", "100844.607500", "100846.097500", "100847.587500", "100849.077500", "100850.567500", "100852.057500", "100853.547500", "100855.037500", "100856.527500", "100858.017500", "100859.507500", "100900.997500", "100902.487500", "100903.977500", "100905.467500", "100906.957500", "100908.447500", "100909.937500", "100911.427500", "100912.917500", "100914.407500", "100915.897500", "100917.387500", "100918.877500", "100920.367500", "100921.857500", "100923.347500", "100924.837500", "100926.327500", "100927.817500", "100929.307500", "100930.797500", "100932.287500", "100933.777500", "100935.267500", "100936.757500", "100938.247500", "100939.737500", "100941.227500", "100942.717500", "100944.207500", "100945.697500", "100947.187500", "100948.677500", "100950.167500", "100951.657500", "100953.147500", "100954.637500", "100956.127500", "100957.617500", "100959.107500", "101000.597500", "101002.087500", "101003.577500", "101005.067500", "101006.557500", "101008.047500", "101009.537500", "101011.027500", "101012.517500", "101014.007500", "101015.497500", "101016.987500", "101018.477500", "101019.967500", "101021.457500", "101022.947500", "101024.437500", "101025.927500", "101027.417500", "101028.907500", "101030.397500", "101031.887500", "101033.377500", "101034.867500", "101036.357500", "101037.847500", "101039.337500", "101040.827500", "101042.317500", "101043.807500", "101045.297500", "101046.787500", "101048.277500", "101049.767500", "101051.257500", "101052.747500", "101054.237500", "101055.727500", "101057.217500", "101058.707500", "101100.197500", "101101.687500", "101103.177500", "101104.667500", "101106.157500", "101107.647500", "101109.137500", "101110.627500", "101112.117500", "101113.607500", "101115.097500", "101116.587500", "101118.077500", "101119.567500", "101121.057500", "101122.547500", "101124.037500", "101125.527500", "101127.017500", "101128.507500", "101129.997500", "101131.487500", "101132.977500", "101134.467500", "101135.957500", "101137.447500", "101138.937500", "101140.427500", "101141.917500", "101143.407500", "101144.897500", "101146.387500", "101147.877500", "101149.367500", "101150.857500", "101152.347500", "101153.837500", "101155.327500", "101156.817500", "101158.307500", "101159.797500", "101201.287500", "101202.777500", "101204.267500", "101205.757500", "101207.247500", "101208.737500", "101210.227500", "101211.717500", "101213.207500", "101214.697500", "101216.187500", "101217.677500", "101219.167500", "101220.657500", "101222.147500", "101223.637500", "101225.127500", "101226.617500", "101228.107500", "101229.597500", "101231.087500", "101232.577500", "101234.067500", "101235.557500", "101237.047500", "101238.537500", "101240.027500", "101241.517500", "101243.007500", "101244.497500", "101245.987500", "101247.477500", "101248.967500", "101250.457500", "101251.947500", "101253.437500", "101254.927500", "101256.417500", "101257.907500", "101259.397500", "101300.887500", "101302.377500", "101303.867500", "101305.357500", "101306.847500", "101308.337500", "101309.827500", "101311.317500", "101312.807500", "101314.297500", "101315.787500", "101317.277500", "101318.767500", "101320.257500", "101321.747500", "101323.237500", "101324.727500", "101326.217500", "101327.707500", "101329.197500", "101330.687500", "101332.177500", "101333.667500", "101335.157500", "101336.647500", "101338.137500", "101339.627500", "101341.117500", "101342.607500", "101344.097500", "101345.587500", "101347.077500", "101348.567500", "101350.057500", "101351.547500", "101353.037500", "101354.527500", "101356.017500", "101357.507500", "101358.997500", "101400.487500", "101401.977500", "101403.467500", "101404.957500", "101406.447500", "101407.937500", "101409.427500", "101410.917500", "101412.407500", "101413.897500", "101415.387500", "101416.877500", "101418.367500", "101419.857500", "101421.347500", "101422.837500", "101424.327500", "101425.817500", "101427.307500", "101428.797500", "101430.287500", "101431.777500", "101433.267500", "101434.757500", "101436.247500", "101437.737500", "101439.227500", "101440.717500", "101442.207500", "101443.697500", "101445.187500", "101446.677500", "101448.167500", "101449.657500", "101451.147500", "101452.637500", "101454.127500", "101455.617500", "101457.107500", "101458.597500", "101500.087500", "101501.577500", "101503.067500", "101504.557500", "101506.047500", "101507.537500", "101509.027500", "101510.517500", "101512.007500", "101513.497500", "101514.987500", "101516.477500", "101517.967500", "101519.457500", "101520.947500", "101522.437500", "101523.927500", "101525.417500", "101526.907500", "101528.397500", "101529.887500", "101531.377500", "101532.867500", "101534.357500", "101535.847500", "101537.337500", "101538.827500", "101540.317500", "101541.807500", "101543.297500", "101544.787500", "101546.277500", "101547.767500", "101549.257500", "101550.747500", "101552.237500", "101553.727500", "101555.217500", "101556.707500", "101558.197500", "101559.687500", "101601.177500", "101602.667500", "101604.157500", "101605.647500", "101607.137500", "101608.627500", "101610.117500", "101611.607500", "101613.097500", "101614.587500", "101616.077500", "101617.567500", "101619.057500", "101620.547500", "101622.037500", "101623.527500", "101625.017500", "101626.507500", "101627.997500", "101629.487500", "101630.977500", "101632.467500", "101633.957500", "101635.447500", "101636.937500", "101638.427500", "101639.917500", "101641.407500", "101642.897500", "101644.387500", "101645.877500", "101647.367500", "101648.857500", "101650.347500", "101651.837500", "101653.327500", "101654.817500", "101656.307500", "101657.797500", "101659.287500", "101700.777500", "101702.267500", "101703.757500", "101705.247500", "101706.737500", "101708.227500", "101709.717500", "101711.207500", "101712.697500", "101714.187500", "101715.677500", "101717.167500", "101718.657500", "101720.147500", "101721.637500", "101723.127500", "101724.617500", "101726.107500", "101727.597500", "101729.087500", "101730.577500"],
      "ContentTime": ["100731.617000", "100731.621000", "100731.624000", "100731.627000", "100731.629000", "100731.632000", "100751.574000", "100751.577000", "100751.580000", "100751.583000", "100751.586000", "100751.589000", "100751.592000", "100751.595000", "100751.598000", "100751.601000", "100751.604000", "100751.607000", "100751.610000", "100751.613000", "100751.616000", "100751.619000", "100751.622000", "100751.625000", "100751.628000", "100751.631000", "100811.573000", "100811.576000", "100811.579000", "100811.582000", "100811.585000", "100811.588000", "100811.591000", "100811.594000", "100811.597000", "100811.600000", "100811.603000", "100811.606000", "100811.609000", "100811.612000", "100811.617000", "100811.620000", "100811.623000", "100811.626000", "100811.629000", "100811.632000", "100831.573000", "100831.576000", "100831.579000", "100831.582000", "100831.592000", "100831.595000", "100831.598000", "100831.601000", "100831.604000", "100831.607000", "100831.609000", "100831.613000", "100831.615000", "100831.618000", "100831.621000", "100831.624000", "100831.627000", "100831.630000", "100831.633000", "100831.647000", "100851.573000", "100851.576000", "100851.579000", "100851.582000", "100851.585000", "100851.588000", "100851.591000", "100851.594000", "100851.597000", "100851.600000", "100851.603000", "100851.606000", "100851.608000", "100851.612000", "100851.615000", "100851.617000", "100851.620000", "100851.623000", "100851.626000", "100851.629000", "100851.632000", "100931.574000", "100931.577000", "100931.580000", "100931.583000", "100931.586000", "100931.589000", "100931.592000", "100931.595000", "100931.598000", "100931.601000", "100931.604000", "100931.607000", "100931.610000", "100931.613000", "100931.616000", "100931.619000", "100931.621000", "100931.624000", "100931.627000", "100931.630000", "100931.633000", "100931.636000", "100931.639000", "100931.642000", "100931.645000", "100931.648000", "100931.651000", "100931.654000", "100931.657000", "100931.660000", "100931.663000", "100931.666000", "100931.669000", "101011.574000", "101011.577000", "101011.580000", "101011.583000", "101011.586000", "101011.589000", "101011.592000", "101011.595000", "101011.598000", "101011.601000", "101011.604000", "101011.607000", "101011.610000", "101011.613000", "101011.616000", "101011.619000", "101011.622000", "101011.625000", "101011.628000", "101011.631000", "101011.634000", "101011.637000", "101011.640000", "101011.643000", "101011.645000", "101011.649000", "101051.573000", "101051.576000", "101051.579000", "101051.582000", "101051.585000", "101051.588000", "101051.591000", "101051.594000", "101051.597000", "101051.600000", "101051.603000", "101051.606000", "101051.609000", "101051.612000", "101051.615000", "101051.618000", "101051.621000", "101051.624000", "101051.627000", "101051.630000", "101051.633000", "101051.636000", "101051.639000", "101051.642000", "101051.645000", "101051.648000", "101051.651000", "101131.573000", "101131.576000", "101131.579000", "101131.582000", "101131.585000", "101131.588000", "101131.591000", "101131.594000", "101131.597000", "101131.600000", "101131.603000", "101131.606000", "101131.609000", "101131.612000", "101131.615000", "101131.618000", "101131.621000", "101131.624000", "101131.627000", "101131.630000", "101131.633000", "101131.636000", "101131.639000", "101131.641000", "101131.644000", "101131.647000", "101131.650000", "101211.574000", "101211.577000", "101211.580000", "101211.583000", "101211.592000", "101211.595000", "101211.598000", "101211.601000", "101211.604000", "101211.607000", "101211.610000", "101211.613000", "101211.616000", "101211.619000", "101211.622000", "101211.631000", "101211.634000", "101211.637000", "101211.640000", "101211.643000", "101211.646000", "101211.649000", "101211.652000", "101211.655000", "101211.658000", "101211.661000", "101211.664000", "101251.573000", "101251.576000", "101251.579000", "101251.582000", "101251.585000", "101251.588000", "101251.591000", "101251.594000", "101251.597000", "101251.600000", "101251.603000", "101251.606000", "101251.609000", "101251.612000", "101251.615000", "101251.618000", "101251.621000", "101251.624000", "101251.627000", "101251.630000", "101251.633000", "101251.636000", "101251.639000", "101251.642000", "101251.645000", "101251.648000", "101251.651000", "101331.573000", "101331.576000", "101331.579000", "101331.582000", "101331.585000", "101331.594000", "101331.597000", "101331.600000", "101331.603000", "101331.606000", "101331.609000", "101331.612000", "101331.615000", "101331.625000", "101331.628000", "101331.631000", "101331.634000", "101331.637000", "101331.640000", "101331.643000", "101331.646000", "101331.649000", "101331.652000", "101331.655000", "101331.658000", "101331.661000", "101331.663000", "101411.574000", "101411.577000", "101411.580000", "101411.583000", "101411.586000", "101411.589000", "101411.592000", "101411.595000", "101411.598000", "101411.601000", "101411.604000", "101411.607000", "101411.610000", "101411.613000", "101411.616000", "101411.619000", "101411.622000", "101411.625000", "101411.628000", "101411.631000", "101411.634000", "101411.637000", "101411.640000", "101411.643000", "101411.646000", "101411.649000", "101451.574000", "101451.577000", "101451.580000", "101451.583000", "101451.586000", "101451.589000", "101451.592000", "101451.595000", "101451.598000", "101451.601000", "101451.604000", "101451.607000", "101451.610000", "101451.616000", "101451.619000", "101451.622000", "101451.625000", "101451.628000", "101451.631000", "101451.634000", "101451.637000", "101451.640000", "101451.643000", "101451.646000", "101451.649000", "101451.652000", "101451.655000", "101531.573000", "101531.576000", "101531.579000", "101531.582000", "101531.585000", "101531.588000", "101531.591000", "101531.594000", "101531.597000", "101531.600000", "101531.603000", "101531.606000", "101531.609000", "101531.612000", "101531.615000", "101531.618000", "101531.621000", "101531.624000", "101531.627000", "101531.630000", "101531.633000", "101531.636000", "101531.639000", "101531.642000", "101531.645000", "101531.648000", "101531.651000", "101611.573000", "101611.576000", "101611.579000", "101611.582000", "101611.585000", "101611.588000", "101611.591000", "101611.594000", "101611.597000", "101611.600000", "101611.603000", "101611.606000", "101611.609000", "101611.612000", "101611.615000", "101611.618000", "101611.621000", "101611.624000", "101611.627000", "101611.630000", "101611.633000", "101611.636000", "101611.639000", "101611.643000", "101611.646000", "101611.649000", "101611.652000", "101651.574000", "101651.577000", "101651.580000", "101651.583000", "101651.586000", "101651.589000", "101651.592000", "101651.596000", "101651.598000", "101651.601000", "101651.604000", "101651.607000", "101651.610000", "101651.613000", "101651.616000", "101651.619000", "101651.622000", "101651.625000", "101651.628000", "101651.631000", "101651.634000", "101651.637000", "101651.640000", "101651.643000", "101651.646000", "101651.649000", "101651.652000", "101731.573000", "101731.576000", "101731.579000", "101731.582000", "101731.585000", "101731.588000", "101731.591000", "101731.594000", "101731.597000", "101731.600000", "101731.603000", "101731.606000", "101731.609000", "101731.612000", "101731.615000", "101731.618000", "101731.621000", "101731.624000", "101731.627000", "101731.630000", "101731.633000", "101731.636000", "101731.639000", "101731.642000", "101731.645000", "101731.648000", "101731.651000", "101733.350000"],
