{
  "AcquisitionMatrixPE": 104,
  "AcquisitionNumber": 1,
  "AcquisitionTime": "09:41:24.327500",
  "BandwidthPerPixelPhaseEncode": 17.17,
  "BaseResolution": 104,
  "BodyPartExamined": "BRAIN",
  "CoilString": "HC1-7;NC1_2",
  "ConsistencyInfo": "N4_VE11C_LATEST_20160120",
  "ConversionSoftware": "dcm2niix",
  "ConversionSoftwareVersion": "v1.0.20190902",
  "DerivedVendorReportedEchoSpacing": 0.000560011,
  "DeviceSerialNumber": "167006",
  "DwellTime": 2.1e-06,
  "EchoTime": 0.037,
  "EchoTrainLength": 104,
  "EffectiveEchoSpacing": 0.000560011,
  "FlipAngle": 52,
  "ImageComments": "Unaliased_MB4_PE3_LB",
  "ImageOrientationPatientDICOM": [0.999173, 0.00454947, -0.0403962, -0.0134287, 0.974872, -0.22236],
  "ImageType": [
    "ORIGINAL",
    "PRIMARY",
    "M",
    "MB",
    "ND",
    "MOSAIC"
],
  "ImagingFrequency": 123.259,
  "InPlanePhaseEncodingDirectionDICOM": "COL",
  "InstitutionAddress": "Chemin_Queen-Mary_4565_Montreal_District_CA_H3W_1W5",
  "InstitutionName": "IUGM",
  "InstitutionalDepartmentName": "Department",
  "MRAcquisitionType": "2D",
  "MagneticFieldStrength": 3,
  "Manufacturer": "Siemens",
  "ManufacturersModelName": "Prisma_fit",
  "Modality": "MR",
  "MultibandAccelerationFactor": 4,
  "PartialFourier": 1,
  "PatientPosition": "HFS",
  "PercentPhaseFOV": 100,
  "PhaseEncodingDirection": "j",
  "PhaseEncodingSteps": 104,
  "PhaseResolution": 1,
  "PixelBandwidth": 2290,
  "ProcedureStepDescription": "games_shinobi",
  "ProtocolName": "func_task-shinobi_run-3",
  "PulseSequenceDetails": "%CustomerSeq%_cmrr_mbep2d_bold",
  "ReceiveCoilActiveElements": "HC1-7;NC1,2",
  "ReceiveCoilName": "HeadNeck_64",
  "ReconMatrixPE": 104,
  "RepetitionTime": 1.49,
  "SAR": 0.0291858,
  "ScanOptions": "FS",
  "ScanningSequence": "EP",
  "SequenceName": "epfid2d1_104",
  "SequenceVariant": "SK_SS",
  "SeriesDescription": "func_task-shinobi_run-3",
  "SeriesNumber": 13,
  "ShimSetting": [590, -7242, -8831, 632, -97, -249, 26, 47],
  "SliceThickness": 2,
  "SliceTiming": [0, 0.785, 0.1, 0.8825, 0.1975, 0.98, 0.295, 1.08, 0.3925, 1.1775, 0.49, 1.275, 0.59, 1.3725, 0.6875, 0, 0.785, 0.1, 0.8825, 0.1975, 0.98, 0.295, 1.08, 0.3925, 1.1775, 0.49, 1.275, 0.59, 1.3725, 0.6875, 0, 0.785, 0.1, 0.8825, 0.1975, 0.98, 0.295, 1.08, 0.3925, 1.1775, 0.49, 1.275, 0.59, 1.3725, 0.6875, 0, 0.785, 0.1, 0.8825, 0.1975, 0.98, 0.295, 1.08, 0.3925, 1.1775, 0.49, 1.275, 0.59, 1.3725, 0.6875],
  "SoftwareVersions": "syngo_MR_E11",
  "SpacingBetweenSlices": 2,
  "StationName": "MRC35049",
  "TaskName": "shinobi",
  "TotalReadoutTime": 0.0576811,
  "TxRefAmp": 217.113,
  "WipMemBlock": "21ea79c4-2a34-44aa-b239-f5434dadf689||Sequence: R016 ve11c/master r/e634e98; Dec 19 2017 11:00:25 by eja",
  "dcmmeta_affine": [
    [-1.9983468055725098, -0.026857497170567513, -0.0767391100525856, 106.73025512695312],
    [-0.009098943322896957, 1.949744462966919, -0.44543659687042236, -74.26626586914062],
    [-0.08079248666763306, 0.4447192847728729, 1.9482548236846924, -50.915653228759766],
    [0.0, 0.0, 0.0, 1.0]
],
  "dcmmeta_reorient_transform": [
    [0.0, -1.0, 0.0, 103.0],
    [1.0, 0.0, 0.0, 0.0],
    [0.0, 0.0, 1.0, 0.0],
    [0.0, 0.0, 0.0, 1.0]
],
  "dcmmeta_shape": [104, 104, 60, 466],
  "dcmmeta_slice_dim": 2,
  "dcmmeta_version": 0.6,
  "global": {
    "const": {
      "AcquisitionMatrix": [104, 0, 0, 104],
      "AngioFlag": "N",
      "BitsAllocated": 16,
      "BitsStored": 16,
      "BodyPartExamined": "BRAIN",
      "Columns": 832,
      "EchoNumbers": 1,
      "EchoTime": 37.0,
      "EchoTrainLength": 104,
      "FlipAngle": 52.0,
      "HighBit": 15,
      "ImageOrientationPatient": [0.99917338124145, 0.00454947175407, -0.0403962439504, -0.0134287482582, 0.97487222782214, -0.2223596369428],
      "ImagePositionPatient": [-821.58602552591, -839.57640768205, 186.17671278835],
      "ImageType": [
        "ORIGINAL",
        "PRIMARY",
        "M",
        "MB",
        "ND",
        "MOSAIC"
],
      "ImagedNucleus": "1H",
      "ImagingFrequency": 123.258988,
      "InPlanePhaseEncodingDirection": "COL",
      "MRAcquisitionType": "2D",
      "MagneticFieldStrength": 3.0,
      "Manufacturer": "SIEMENS",
      "ManufacturerModelName": "Prisma_fit",
      "Modality": "MR",
      "NumberOfAverages": 1.0,
      "NumberOfPhaseEncodingSteps": 104,
      "PercentPhaseFieldOfView": 100.0,
      "PercentSampling": 100.0,
      "PerformedProcedureStepStartTime": "090117.709000",
      "PhotometricInterpretation": "MONOCHROME2",
      "PixelBandwidth": 2290.0,
      "PixelRepresentation": 0,
      "PixelSpacing": [2.0, 2.0],
      "ProtocolName": "func_task-shinobi_run-3",
      "RepetitionTime": 1490.0,
      "Rows": 832,
      "SAR": 0.02918583780779,
      "SamplesPerPixel": 1,
      "ScanOptions": "FS",
      "ScanningSequence": "EP",
      "SequenceName": "epfid2d1_104",
      "SequenceVariant": [
        "SK",
        "SS"
],
      "SeriesDescription": "func_task-shinobi_run-3",
      "SeriesNumber": 13,
      "SeriesTime": "094251.472000",
      "SliceLocation": -37.153072603421,
      "SliceThickness": 2.0,
      "SmallestImagePixelValue": 0,
      "SoftwareVersions": "syngo MR E11",
      "SpacingBetweenSlices": 1.9999999150002,
      "SpecificCharacterSet": "ISO_IR 100",
      "StudyID": "1",
      "StudyTime": "090117.567000",
      "TransmitCoilName": "Body",
      "VariableFlipAngleFlag": "N",
      "WindowCenterWidthExplanation": "Algo1",
      "dBdt": 0.0},
    "slices": {}
  },
  "time": {
    "samples": {
      "AcquisitionNumber": [1, 2, 3, 4, 5, 6, 7, 8, 9, 10, 11, 12, 13, 14, 15, 16, 17, 18, 19, 20, 21, 22, 23, 24, 25, 26, 27, 28, 29, 30, 31, 32, 33, 34, 35, 36, 37, 38, 39, 40, 41, 42, 43, 44, 45, 46, 47, 48, 49, 50, 51, 52, 53, 54, 55, 56, 57, 58, 59, 60, 61, 62, 63, 64, 65, 66, 67, 68, 69, 70, 71, 72, 73, 74, 75, 76, 77, 78, 79, 80, 81, 82, 83, 84, 85, 86, 87, 88, 89, 90, 91, 92, 93, 94, 95, 96, 97, 98, 99, 100, 101, 102, 103, 104, 105, 106, 107, 108, 109, 110, 111, 112, 113, 114, 115, 116, 117, 118, 119, 120, 121, 122, 123, 124, 125, 126, 127, 128, 129, 130, 131, 132, 133, 134, 135, 136, 137, 138, 139, 140, 141, 142, 143, 144, 145, 146, 147, 148, 149, 150, 151, 152, 153, 154, 155, 156, 157, 158, 159, 160, 161, 162, 163, 164, 165, 166, 167, 168, 169, 170, 171, 172, 173, 174, 175, 176, 177, 178, 179, 180, 181, 182, 183, 184, 185, 186, 187, 188, 189, 190, 191, 192, 193, 194, 195, 196, 197, 198, 199, 200, 201, 202, 203, 204, 205, 206, 207, 208, 209, 210, 211, 212, 213, 214, 215, 216, 217, 218, 219, 220, 221, 222, 223, 224, 225, 226, 227, 228, 229, 230, 231, 232, 233, 234, 235, 236, 237, 238, 239, 240, 241, 242, 243, 244, 245, 246, 247, 248, 249, 250, 251, 252, 253, 254, 255, 256, 257, 258, 259, 260, 261, 262, 263, 264, 265, 266, 267, 268, 269, 270, 271, 272, 273, 274, 275, 276, 277, 278, 279, 280, 281, 282, 283, 284, 285, 286, 287, 288, 289, 290, 291, 292, 293, 294, 295, 296, 297, 298, 299, 300, 301, 302, 303, 304, 305, 306, 307, 308, 309, 310, 311, 312, 313, 314, 315, 316, 317, 318, 319, 320, 321, 322, 323, 324, 325, 326, 327, 328, 329, 330, 331, 332, 333, 334, 335, 336, 337, 338, 339, 340, 341, 342, 343, 344, 345, 346, 347, 348, 349, 350, 351, 352, 353, 354, 355, 356, 357, 358, 359, 360, 361, 362, 363, 364, 365, 366, 367, 368, 369, 370, 371, 372, 373, 374, 375, 376, 377, 378, 379, 380, 381, 382, 383, 384, 385, 386, 387, 388, 389, 390, 391, 392, 393, 394, 395, 396, 397, 398, 399, 400, 401, 402, 403, 404, 405, 406, 407, 408, 409, 410, 411, 412, 413, 414, 415, 416, 417, 418, 419, 420, 421, 422, 423, 424, 425, 426, 427, 428, 429, 430, 431, 432, 433, 434, 435, 436, 437, 438, 439, 440, 441, 442, 443, 444, 445, 446, 447, 448, 449, 450, 451, 452, 453, 454, 455, 456, 457, 458, 459, 460, 461, 462, 463, 464, 465, 466],
      "AcquisitionTime": ["094124.327500", "094125.817500", "094127.307500", "094128.797500", "094130.287500", "094131.777500", "094133.267500", "094134.757500", "094136.247500", "094137.737500", "094139.227500", "094140.717500", "094142.207500", "094143.697500", "094145.187500", "094146.677500", "094148.167500", "094149.657500", "094151.147500", "094152.637500", "094154.127500", "094155.617500", "094157.107500", "094158.597500", "094200.087500", "094201.577500", "094203.067500", "094204.557500", "094206.047500", "094207.537500", "094209.027500", "094210.517500", "094212.007500", "094213.497500", "094214.987500", "094216.477500", "094217.967500", "094219.457500", "094220.947500", "094222.437500", "094223.927500", "094225.417500", "094226.907500", "094228.397500", "094229.887500", "094231.377500", "094232.867500", "094234.357500", "094235.847500", "094237.337500", "094238.827500", "094240.317500", "094241.807500", "094243.297500", "094244.787500", "094246.277500", "094247.767500", "094249.257500", "094250.747500", "094252.237500", "094253.727500", "094255.217500", "094256.707500", "094258.197500", "094259.687500", "094301.177500", "094302.667500", "094304.157500", "094305.647500", "094307.137500", "094308.627500", "094310.117500", "094311.607500", "094313.097500", "094314.587500", "094316.077500", "094317.567500", "094319.057500", "094320.547500", "094322.037500", "094323.527500", "094325.017500", "094326.507500", "094327.997500", "094329.487500", "094330.977500", "094332.467500", "094333.957500", "094335.447500", "094336.937500", "094338.427500", "094339.917500", "094341.407500", "094342.897500", "094344.387500", "094345.877500", "094347.367500", "094348.857500", "094350.347500", "094351.837500", "094353.327500", "094354.817500", "094356.307500", "094357.797500", "094359.287500", "094400.777500", "094402.267500", "094403.757500", "094405.247500", "094406.737500", "094408.227500", "094409.717500", "094411.207500", "094412.697500", "094414.187500", "094415.677500", "094417.167500", "094418.657500", "094420.147500", "094421.637500", "094423.127500", "094424.617500", "094426.107500", "094427.597500", "094429.087500", "094430.577500", "094432.067500", "094433.557500", "094435.047500", "094436.537500", "094438.027500", "094439.517500", "094441.007500", "094442.497500", "094443.987500", "094445.477500", "094446.967500", "094448.457500", "094449.947500", "094451.437500", "094452.927500", "094454.417500", "094455.907500", "094457.397500", "094458.887500", "094500.377500", "094501.867500", "094503.357500", "094504.847500", "094506.337500", "094507.827500", "094509.317500", "094510.807500", "094512.297500", "094513.787500", "094515.277500", "094516.767500", "094518.257500", "094519.747500", "094521.237500", "094522.727500", "094524.217500", "094525.707500", "094527.197500", "094528.687500", "094530.177500", "094531.667500", "094533.157500", "094534.647500", "094536.137500", "094537.627500", "094539.117500", "094540.607500", "094542.097500", "094543.587500", "094545.077500", "094546.567500", "094548.057500", "094549.547500", "094551.037500", "094552.527500", "094554.017500", "094555.507500", "094556.997500", "094558.487500", "094559.977500", "094601.467500", "094602.957500", "094604.447500", "094605.937500", "094607.427500", "094608.917500", "094610.407500", "094611.897500", "094613.387500", "094614.877500", "094616.367500", "094617.857500", "094619.347500", "094620.837500", "094622.327500", "094623.817500", "094625.307500", "094626.797500", "094628.287500", "094629.777500", "094631.267500", "094632.757500", "094634.247500", "094635.737500", "094637.227500", "094638.717500", "094640.207500", "094641.697500", "094643.187500", "094644.677500", "094646.167500", "094647.657500", "094649.147500", "094650.637500", "094652.127500", "094653.617500", "094655.107500", "094656.597500", "094658.087500", "094659.577500", "094701.067500", "094702.557500", "094704.047500", "094705.537500", "094707.027500", "094708.517500", "094710.007500", "094711.497500", "094712.987500", "094714.477500", "094715.967500", "094717.457500", "094718.947500", "094720.437500", "094721.927500", "094723.417500", "094724.907500", "094726.397500", "094727.887500", "094729.377500", "094730.867500", "094732.357500", "094733.847500", "094735.337500", "094736.827500", "094738.317500", "094739.807500", "094741.297500", "094742.787500", "094744.277500", "094745.767500", "094747.257500", "094748.747500", "094750.237500", "094751.727500", "094753.217500", "094754.707500", "094756.197500", "094757.687500", "094759.177500", "094800.667500", "094802.157500", "094803.647500", "094805.137500", "094806.627500", "094808.117500", "094809.607500", "094811.097500", "094812.587500", "094814.077500", "094815.567500", "094817.057500", "094818.547500", "094820.037500", "094821.527500", "094823.017500", "094824.507500", "094825.997500", "094827.487500", "094828.977500", "094830.467500", "094831.957500", "094833.447500", "094834.937500", "094836.427500", "094837.917500", "094839.407500", "094840.897500", "094842.387500", "094843.877500", "094845.367500", "094846.857500", "094848.347500", "094849.837500", "094851.327500", "094852.817500", "094854.307500", "094855.797500", "094857.287500", "094858.777500", "094900.267500", "094901.757500", "094903.247500", "094904.737500", "094906.227500", "094907.717500", "094909.207500", "094910.697500", "094912.187500", "094913.677500", "094915.167500", "094916.657500", "094918.147500", "094919.637500", "094921.127500", "094922.617500", "094924.107500", "094925.597500", "094927.087500", "094928.577500", "094930.067500", "094931.557500", "094933.047500", "094934.537500", "094936.027500", "094937.517500", "094939.007500", "094940.497500", "094941.987500", "094943.477500", "094944.967500", "094946.457500", "094947.947500", "094949.437500", "094950.927500", "094952.417500", "094953.907500", "094955.397500", "094956.887500", "094958.377500", "094959.867500", "095001.357500", "095002.847500", "095004.337500", "095005.827500", "095007.317500", "095008.807500", "095010.297500", "095011.787500", "095013.277500", "095014.767500", "095016.257500", "095017.747500", "095019.237500", "095020.727500", "095022.217500", "095023.707500", "095025.197500", "095026.687500", "095028.177500", "095029.667500", "095031.157500", "095032.647500", "095034.137500", "095035.627500", "095037.117500", "095038.607500", "095040.097500", "095041.587500", "095043.077500", "095044.567500", "095046.057500", "095047.547500", "095049.037500", "095050.527500", "095052.017500", "095053.507500", "095054.997500", "095056.487500", "095057.977500", "095059.467500", "095100.957500", "095102.447500", "095103.937500", "095105.427500", "095106.917500", "095108.407500", "095109.897500", "095111.387500", "095112.877500", "095114.367500", "095115.857500", "095117.347500", "095118.837500", "095120.327500", "095121.817500", "095123.307500", "095124.797500", "095126.287500", "095127.777500", "095129.267500", "095130.757500", "095132.247500", "095133.737500", "095135.227500", "095136.717500", "095138.207500", "095139.697500", "095141.187500", "095142.677500", "095144.167500", "095145.657500", "095147.147500", "095148.637500", "095150.127500", "095151.617500", "095153.107500", "095154.597500", "095156.087500", "095157.577500", "095159.067500", "095200.557500", "095202.047500", "095203.537500", "095205.027500", "095206.517500", "095208.007500", "095209.497500", "095210.987500", "095212.477500", "095213.967500", "095215.457500", "095216.947500", "095218.437500", "095219.927500", "095221.417500", "095222.907500", "095224.397500", "095225.887500", "095227.377500", "095228.867500", "095230.357500", "095231.847500", "095233.337500", "095234.827500", "095236.317500", "095237.807500", "095239.297500", "095240.787500", "095242.277500", "095243.767500", "095245.257500", "095246.747500", "095248.237500", "095249.727500", "095251.217500", "095252.707500", "095254.197500", "095255.687500", "095257.177500"],
      "ContentTime": ["094251.475000", "094251.478000", "094251.481000", "094251.484000", "094251.487000", "094251.490000", "094251.493000", "094251.496000", "094251.499000", "094251.502000", "094251.505000", "094251.508000", "094251.511000", "094251.514000", "094251.523000", "094251.526000", "094251.528000", "094251.531000", "094251.534000", "094251.537000", "094251.540000", "094251.543000", "094251.546000", "094251.549000", "094251.552000", "094251.555000", "094251.558000", "094251.561000", "094251.564000", "094251.567000", "094251.570000", "094311.434000", "094311.437000", "094311.440000", "094311.443000", "094311.446000", "094311.449000", "094311.452000", "094311.455000", "094311.458000", "094311.461000", "094311.464000", "094311.467000", "094311.470000", "094311.473000", "094311.476000", "094311.479000", "094311.482000", "094311.485000", "094311.487000", "094311.491000", "094331.434000", "094331.437000", "094331.443000", "094331.447000", "094331.449000", "094331.452000", "094331.455000", "094331.458000", "094331.461000", "094331.464000", "094331.467000", "094331.470000", "094331.473000", "094331.476000", "094331.479000", "094331.482000", "094331.485000", "094331.488000", "094331.491000", "094331.494000", "094351.435000", "094351.438000", "094351.441000", "094351.445000", "094351.448000", "094351.451000", "094351.454000", "094351.458000", "094351.461000", "094351.464000", "094351.467000", "094351.470000", "094351.493000", "094351.496000", "094351.499000", "094351.502000", "094351.505000", "094351.508000", "094351.511000", "094351.514000", "094411.435000", "094411.438000", "094411.441000", "094411.444000", "094411.447000", "094411.450000", "094411.453000", "094411.456000", "094411.459000", "094411.462000", "094411.465000", "094411.468000", "094411.477000", "094411.480000", "094411.483000", "094411.486000", "094411.489000", "094411.492000", "094411.495000", "094411.498000", "094451.434000", "094451.437000", "094451.440000", "094451.443000", "094451.446000", "094451.449000", "094451.452000", "094451.455000", "094451.458000", "094451.461000", "094451.464000", "094451.467000", "094451.477000", "094451.480000", "094451.483000", "094451.486000", "094451.489000", "094451.492000", "094451.495000", "094451.498000", "094451.501000", "094451.504000", "094451.507000", "094451.510000", "094451.513000", "094451.516000", "094451.519000", "094531.434000", "094531.437000", "094531.440000", "094531.443000", "094531.446000", "094531.449000", "094531.452000", "094531.455000", "094531.458000", "094531.461000", "094531.464000", "094531.467000", "094531.470000", "094531.473000", "094531.476000", "094531.479000", "094531.482000", "094531.485000", "094531.488000", "094531.491000", "094531.494000", "094531.497000", "094531.500000", "094531.503000", "094531.506000", "094531.509000", "094531.512000", "094611.435000", "094611.438000", "094611.441000", "094611.444000", "094611.447000", "094611.450000", "094611.453000", "094611.456000", "094611.459000", "094611.462000", "094611.465000", "094611.468000", "094611.471000", "094611.474000", "094611.477000", "094611.480000", "094611.483000", "094611.486000", "094611.489000", "094611.492000", "094611.495000", "094611.498000", "094611.501000", "094611.504000", "094611.507000", "094611.510000", "094611.513000", "094651.435000", "094651.439000", "094651.442000", "094651.445000", "094651.448000", "094651.451000", "094651.454000", "094651.457000", "094651.460000", "094651.466000", "094651.470000", "094651.473000", "094651.475000", "094651.478000", "094651.482000", "094651.485000", "094651.488000", "094651.490000", "094651.494000", "094651.497000", "094651.500000", "094651.502000", "094651.506000", "094651.509000", "094651.511000", "094651.514000", "094731.434000", "094731.437000", "094731.440000", "094731.443000", "094731.446000", "094731.449000", "094731.452000", "094731.455000", "094731.458000", "094731.461000", "094731.464000", "094731.467000", "094731.470000", "094731.473000", "094731.476000", "094731.479000", "094731.482000", "094731.485000", "094731.488000", "094731.491000", "094731.494000", "094731.497000", "094731.500000", "094731.503000", "094731.506000", "094731.509000", "094731.512000", "094811.434000", "094811.437000", "094811.440000", "094811.443000", "094811.446000", "094811.449000", "094811.452000", "094811.455000", "094811.458000", "094811.461000", "094811.464000", "094811.467000", "094811.470000", "094811.473000", "094811.476000", "094811.495000", "094811.498000", "094811.501000", "094811.504000", "094811.507000", "094811.510000", "094811.513000", "094811.516000", "094811.519000", "094811.522000", "094811.525000", "094811.528000", "094851.435000", "094851.438000", "094851.441000", "094851.444000", "094851.447000", "094851.450000", "094851.453000", "094851.456000", "094851.459000", "094851.462000", "094851.465000", "094851.468000", "094851.471000", "094851.474000", "094851.477000", "094851.480000", "094851.483000", "094851.486000", "094851.489000", "094851.492000", "094851.495000", "094851.498000", "094851.501000", "094851.504000", "094851.507000", "094851.510000", "094851.513000", "094931.434000", "094931.437000", "094931.440000", "094931.443000", "094931.446000", "094931.449000", "094931.452000", "094931.455000", "094931.458000", "094931.461000", "094931.464000", "094931.467000", "094931.470000", "094931.473000", "094931.476000", "094931.479000", "094931.482000", "094931.485000", "094931.488000", "094931.491000", "094931.494000", "094931.497000", "094931.500000", "094931.503000", "094931.506000", "094931.509000", "094931.512000", "095011.434000", "095011.437000", "095011.440000", "095011.443000", "095011.446000", "095011.449000", "095011.452000", "095011.455000", "095011.458000", "095011.461000", "095011.464000", "095011.467000", "095011.470000", "095011.473000", "095011.476000", "095011.479000", "095011.482000", "095011.485000", "095011.488000", "095011.491000", "095011.494000", "095011.497000", "095011.500000", "095011.503000", "095011.506000", "095011.509000", "095011.512000", "095051.435000", "095051.438000", "095051.441000", "095051.444000", "095051.447000", "095051.450000", "095051.453000", "095051.456000", "095051.459000", "095051.462000", "095051.465000", "095051.468000", "095051.471000", "095051.474000", "095051.477000", "095051.480000", "095051.483000", "095051.486000", "095051.489000", "095051.492000", "095051.495000", "095051.498000", "095051.501000", "095051.504000", "095051.507000", "095051.510000", "095051.513000", "095131.435000", "095131.438000", "095131.441000", "095131.444000", "095131.447000", "095131.450000", "095131.453000", "095131.461000", "095131.465000", "095131.468000", "095131.471000", "095131.473000", "095131.477000", "095131.480000", "095131.483000", "095131.486000", "095131.489000", "095131.492000", "095131.495000", "095131.498000", "095131.501000", "095131.504000", "095131.507000", "095131.510000", "095131.513000", "095131.516000", "095211.434000", "095211.437000", "095211.440000", "095211.443000", "095211.446000", "095211.449000", "095211.452000", "095211.455000", "095211.459000", "095211.461000", "095211.464000", "095211.467000", "095211.470000", "095211.473000", "095211.476000", "095211.479000", "095211.482000", "095211.485000", "095211.488000", "095211.491000", "095211.494000", "095211.497000", "095211.500000", "095211.503000", "095211.506000", "095211.509000", "095211.512000", "095251.434000", "095251.438000", "095251.441000", "095251.445000", "095251.448000", "095251.451000", "095251.454000", "095251.458000", "095251.461000", "095251.464000", "095251.467000", "095251.471000", "095251.474000", "095251.477000", "095251.480000", "095251.483000", "095251.486000", "095251.489000", "095251.493000", "095251.496000", "095251.499000", "095251.502000", "095251.511000", "095251.515000", "095251.518000", "095251.521000", "095251.523000", "095259.524000", "095259.527000", "095259.530000", "095259.533000", "095259.544000", "095259.547000"],
