{
  "AcquisitionMatrixPE": 104,
  "AcquisitionNumber": 1,
  "AcquisitionTime": "11:19:47.687500",
  "BandwidthPerPixelPhaseEncode": 17.17,
  "BaseResolution": 104,
  "BodyPartExamined": "BRAIN",
  "CoilString": "HC1-7;NC1_2",
  "ConsistencyInfo": "N4_VE11C_LATEST_20160120",
  "ConversionSoftware": "dcm2niix",
  "ConversionSoftwareVersion": "v1.0.20190902",
  "DerivedVendorReportedEchoSpacing": 0.000560011,
  "DeviceSerialNumber": "167006",
  "DwellTime": 2.1e-06,
  "EchoTime": 0.037,
  "EchoTrainLength": 104,
  "EffectiveEchoSpacing": 0.000560011,
  "FlipAngle": 52,
  "ImageComments": "Unaliased_MB4_PE3_LB",
  "ImageOrientationPatientDICOM": [0.999367, 0.0201291, 0.0293195, -0.00313959, 0.871125, -0.491051],
  "ImageType": [
    "ORIGINAL",
    "PRIMARY",
    "M",
    "MB",
    "ND",
    "MOSAIC"
],
  "ImagingFrequency": 123.259,
  "InPlanePhaseEncodingDirectionDICOM": "COL",
  "InstitutionAddress": "Chemin_Queen-Mary_4565_Montreal_District_CA_H3W_1W5",
  "InstitutionName": "IUGM",
  "InstitutionalDepartmentName": "Department",
  "MRAcquisitionType": "2D",
  "MagneticFieldStrength": 3,
  "Manufacturer": "Siemens",
  "ManufacturersModelName": "Prisma_fit",
  "Modality": "MR",
  "MultibandAccelerationFactor": 4,
  "PartialFourier": 1,
  "PatientPosition": "HFS",
  "PercentPhaseFOV": 100,
  "PhaseEncodingDirection": "j",
  "PhaseEncodingSteps": 104,
  "PhaseResolution": 1,
  "PixelBandwidth": 2290,
  "ProcedureStepDescription": "games_shinobi",
  "ProtocolName": "func_task-shinobi_run-4",
  "PulseSequenceDetails": "%CustomerSeq%_cmrr_mbep2d_bold",
  "ReceiveCoilActiveElements": "HC1-7;NC1,2",
  "ReceiveCoilName": "HeadNeck_64",
  "ReconMatrixPE": 104,
  "RepetitionTime": 1.49,
  "SAR": 0.0373123,
  "ScanOptions": "FS",
  "ScanningSequence": "EP",
  "SequenceName": "epfid2d1_104",
  "SequenceVariant": "SK_SS",
  "SeriesDescription": "func_task-shinobi_run-4",
  "SeriesNumber": 15,
  "ShimSetting": [625, -7206, -8861, 313, -15, -205, 27, -13],
  "SliceThickness": 2,
  "SliceTiming": [0, 0.785, 0.0975, 0.8825, 0.195, 0.98, 0.295, 1.0775, 0.3925, 1.175, 0.49, 1.2725, 0.5875, 1.3725, 0.685, 0, 0.785, 0.0975, 0.8825, 0.195, 0.98, 0.295, 1.0775, 0.3925, 1.175, 0.49, 1.2725, 0.5875, 1.3725, 0.685, 0, 0.785, 0.0975, 0.8825, 0.195, 0.98, 0.295, 1.0775, 0.3925, 1.175, 0.49, 1.2725, 0.5875, 1.3725, 0.685, 0, 0.785, 0.0975, 0.8825, 0.195, 0.98, 0.295, 1.0775, 0.3925, 1.175, 0.49, 1.2725, 0.5875, 1.3725, 0.685],
  "SoftwareVersions": "syngo_MR_E11",
  "SpacingBetweenSlices": 2,
  "StationName": "MRC35049",
  "TaskName": "shinobi",
  "TotalReadoutTime": 0.0576811,
  "TxRefAmp": 253.335,
  "WipMemBlock": "20f7d125-6e23-4acb-add4-240bc7169281||Sequence: R016 ve11c/master r/e634e98; Dec 19 2017 11:00:25 by eja",
  "dcmmeta_affine": [
    [-1.9987348318099976, -0.0062791830860078335, 0.07085075229406357, 105.51435852050781],
    [-0.04025822505354881, 1.7422503232955933, -0.9812966585159302, -50.43727493286133],
    [0.05863900110125542, 0.98210209608078, 1.7412744760513306, -84.50853729248047],
    [0.0, 0.0, 0.0, 1.0]
],
  "dcmmeta_reorient_transform": [
    [0.0, -1.0, 0.0, 103.0],
    [1.0, 0.0, 0.0, 0.0],
    [0.0, 0.0, 1.0, 0.0],
    [0.0, 0.0, 0.0, 1.0]
],
  "dcmmeta_shape": [104, 104, 60, 407],
  "dcmmeta_slice_dim": 2,
  "dcmmeta_version": 0.6,
  "global": {
    "const": {
      "AcquisitionMatrix": [104, 0, 0, 104],
      "AngioFlag": "N",
      "BitsAllocated": 16,
      "BitsStored": 16,
      "BodyPartExamined": "BRAIN",
      "Columns": 832,
      "EchoNumbers": 1,
      "EchoTime": 37.0,
      "EchoTrainLength": 104,
      "FlipAngle": 52.0,
      "HighBit": 15,
      "ImageOrientationPatient": [0.99936739277984, 0.02012911253523, 0.02931949994414, -0.0031395915439, 0.87112514921737, -0.4910510333621],
      "ImagePositionPatient": [-830.12143823156, -777.84760812557, 352.78853115895],
      "ImageType": [
        "ORIGINAL",
        "PRIMARY",
        "M",
        "MB",
        "ND",
        "MOSAIC"
],
      "ImagedNucleus": "1H",
      "ImagingFrequency": 123.259021,
      "InPlanePhaseEncodingDirection": "COL",
      "MRAcquisitionType": "2D",
      "MagneticFieldStrength": 3.0,
      "Manufacturer": "SIEMENS",
      "ManufacturerModelName": "Prisma_fit",
      "Modality": "MR",
      "NumberOfAverages": 1.0,
      "NumberOfPhaseEncodingSteps": 104,
      "PercentPhaseFieldOfView": 100.0,
      "PercentSampling": 100.0,
      "PerformedProcedureStepStartTime": "102912.990000",
      "PhotometricInterpretation": "MONOCHROME2",
      "PixelBandwidth": 2290.0,
      "PixelRepresentation": 0,
      "PixelSpacing": [2.0, 2.0],
      "ProtocolName": "func_task-shinobi_run-4",
      "RepetitionTime": 1490.0,
      "Rows": 832,
      "SAR": 0.03731226334869,
      "SamplesPerPixel": 1,
      "ScanOptions": "FS",
      "ScanningSequence": "EP",
      "SequenceName": "epfid2d1_104",
      "SequenceVariant": [
        "SK",
        "SS"
],
      "SeriesDescription": "func_task-shinobi_run-4",
      "SeriesNumber": 15,
      "SeriesTime": "112120.052000",
      "SliceLocation": -45.091431609057,
      "SliceThickness": 2.0,
      "SmallestImagePixelValue": 0,
      "SoftwareVersions": "syngo MR E11",
      "SpacingBetweenSlices": 1.9999999460827,
      "SpecificCharacterSet": "ISO_IR 100",
      "StudyID": "1",
      "StudyTime": "102912.863000",
      "TransmitCoilName": "Body",
      "VariableFlipAngleFlag": "N",
      "WindowCenterWidthExplanation": "Algo1",
      "dBdt": 0.0},
    "slices": {}
  },
  "time": {
    "samples": {
      "AcquisitionNumber": [1, 2, 3, 4, 5, 6, 7, 8, 9, 10, 11, 12, 13, 14, 15, 16, 17, 18, 19, 20, 21, 22, 23, 24, 25, 26, 27, 28, 29, 30, 31, 32, 33, 34, 35, 36, 37, 38, 39, 40, 41, 42, 43, 44, 45, 46, 47, 48, 49, 50, 51, 52, 53, 54, 55, 56, 57, 58, 59, 60, 61, 62, 63, 64, 65, 66, 67, 68, 69, 70, 71, 72, 73, 74, 75, 76, 77, 78, 79, 80, 81, 82, 83, 84, 85, 86, 87, 88, 89, 90, 91, 92, 93, 94, 95, 96, 97, 98, 99, 100, 101, 102, 103, 104, 105, 106, 107, 108, 109, 110, 111, 112, 113, 114, 115, 116, 117, 118, 119, 120, 121, 122, 123, 124, 125, 126, 127, 128, 129, 130, 131, 132, 133, 134, 135, 136, 137, 138, 139, 140, 141, 142, 143, 144, 145, 146, 147, 148, 149, 150, 151, 152, 153, 154, 155, 156, 157, 158, 159, 160, 161, 162, 163, 164, 165, 166, 167, 168, 169, 170, 171, 172, 173, 174, 175, 176, 177, 178, 179, 180, 181, 182, 183, 184, 185, 186, 187, 188, 189, 190, 191, 192, 193, 194, 195, 196, 197, 198, 199, 200, 201, 202, 203, 204, 205, 206, 207, 208, 209, 210, 211, 212, 213, 214, 215, 216, 217, 218, 219, 220, 221, 222, 223, 224, 225, 226, 227, 228, 229, 230, 231, 232, 233, 234, 235, 236, 237, 238, 239, 240, 241, 242, 243, 244, 245, 246, 247, 248, 249, 250, 251, 252, 253, 254, 255, 256, 257, 258, 259, 260, 261, 262, 263, 264, 265, 266, 267, 268, 269, 270, 271, 272, 273, 274, 275, 276, 277, 278, 279, 280, 281, 282, 283, 284, 285, 286, 287, 288, 289, 290, 291, 292, 293, 294, 295, 296, 297, 298, 299, 300, 301, 302, 303, 304, 305, 306, 307, 308, 309, 310, 311, 312, 313, 314, 315, 316, 317, 318, 319, 320, 321, 322, 323, 324, 325, 326, 327, 328, 329, 330, 331, 332, 333, 334, 335, 336, 337, 338, 339, 340, 341, 342, 343, 344, 345, 346, 347, 348, 349, 350, 351, 352, 353, 354, 355, 356, 357, 358, 359, 360, 361, 362, 363, 364, 365, 366, 367, 368, 369, 370, 371, 372, 373, 374, 375, 376, 377, 378, 379, 380, 381, 382, 383, 384, 385, 386, 387, 388, 389, 390, 391, 392, 393, 394, 395, 396, 397, 398, 399, 400, 401, 402, 403, 404, 405, 406, 407],
      "AcquisitionTime": ["111947.687500", "111949.177500", "111950.667500", "111952.157500", "111953.647500", "111955.137500", "111956.627500", "111958.117500", "111959.607500", "112001.097500", "112002.587500", "112004.077500", "112005.567500", "112007.057500", "112008.547500", "112010.037500", "112011.527500", "112013.017500", "112014.507500", "112015.997500", "112017.487500", "112018.977500", "112020.467500", "112021.957500", "112023.447500", "112024.937500", "112026.427500", "112027.917500", "112029.407500", "112030.897500", "112032.387500", "112033.877500", "112035.367500", "112036.857500", "112038.347500", "112039.837500", "112041.327500", "112042.817500", "112044.307500", "112045.797500", "112047.287500", "112048.777500", "112050.267500", "112051.757500", "112053.247500", "112054.737500", "112056.227500", "112057.717500", "112059.207500", "112100.697500", "112102.187500", "112103.677500", "112105.167500", "112106.657500", "112108.147500", "112109.637500", "112111.127500", "112112.617500", "112114.107500", "112115.597500", "112117.087500", "112118.577500", "112120.067500", "112121.557500", "112123.047500", "112124.537500", "112126.027500", "112127.517500", "112129.007500", "112130.497500", "112131.987500", "112133.477500", "112134.967500", "112136.457500", "112137.947500", "112139.437500", "112140.927500", "112142.417500", "112143.907500", "112145.397500", "112146.887500", "112148.377500", "112149.867500", "112151.357500", "112152.847500", "112154.337500", "112155.827500", "112157.317500", "112158.807500", "112200.297500", "112201.787500", "112203.277500", "112204.767500", "112206.257500", "112207.747500", "112209.237500", "112210.727500", "112212.217500", "112213.707500", "112215.197500", "112216.687500", "112218.177500", "112219.667500", "112221.157500", "112222.647500", "112224.137500", "112225.627500", "112227.117500", "112228.607500", "112230.097500", "112231.587500", "112233.077500", "112234.567500", "112236.057500", "112237.547500", "112239.037500", "112240.527500", "112242.017500", "112243.507500", "112244.997500", "112246.487500", "112247.977500", "112249.467500", "112250.957500", "112252.447500", "112253.937500", "112255.427500", "112256.917500", "112258.407500", "112259.897500", "112301.387500", "112302.877500", "112304.367500", "112305.857500", "112307.347500", "112308.837500", "112310.327500", "112311.817500", "112313.307500", "112314.797500", "112316.287500", "112317.777500", "112319.267500", "112320.757500", "112322.247500", "112323.737500", "112325.227500", "112326.717500", "112328.207500", "112329.697500", "112331.187500", "112332.677500", "112334.167500", "112335.657500", "112337.147500", "112338.637500", "112340.127500", "112341.617500", "112343.107500", "112344.597500", "112346.087500", "112347.577500", "112349.067500", "112350.557500", "112352.047500", "112353.537500", "112355.027500", "112356.517500", "112358.007500", "112359.497500", "112400.987500", "112402.477500", "112403.967500", "112405.457500", "112406.947500", "112408.437500", "112409.927500", "112411.417500", "112412.907500", "112414.397500", "112415.887500", "112417.377500", "112418.867500", "112420.357500", "112421.847500", "112423.337500", "112424.827500", "112426.317500", "112427.807500", "112429.297500", "112430.787500", "112432.277500", "112433.767500", "112435.257500", "112436.747500", "112438.237500", "112439.727500", "112441.217500", "112442.707500", "112444.197500", "112445.687500", "112447.177500", "112448.667500", "112450.157500", "112451.647500", "112453.137500", "112454.627500", "112456.117500", "112457.607500", "112459.097500", "112500.587500", "112502.077500", "112503.567500", "112505.057500", "112506.547500", "112508.037500", "112509.527500", "112511.017500", "112512.507500", "112513.997500", "112515.487500", "112516.977500", "112518.467500", "112519.957500", "112521.447500", "112522.937500", "112524.427500", "112525.917500", "112527.407500", "112528.897500", "112530.387500", "112531.877500", "112533.367500", "112534.857500", "112536.347500", "112537.837500", "112539.327500", "112540.817500", "112542.307500", "112543.797500", "112545.287500", "112546.777500", "112548.267500", "112549.757500", "112551.247500", "112552.737500", "112554.227500", "112555.717500", "112557.207500", "112558.697500", "112600.187500", "112601.677500", "112603.167500", "112604.657500", "112606.147500", "112607.637500", "112609.127500", "112610.617500", "112612.107500", "112613.597500", "112615.087500", "112616.577500", "112618.067500", "112619.557500", "112621.047500", "112622.537500", "112624.027500", "112625.517500", "112627.007500", "112628.497500", "112629.987500", "112631.477500", "112632.967500", "112634.457500", "112635.947500", "112637.437500", "112638.927500", "112640.417500", "112641.907500", "112643.397500", "112644.887500", "112646.377500", "112647.867500", "112649.357500", "112650.847500", "112652.337500", "112653.827500", "112655.317500", "112656.807500", "112658.297500", "112659.787500", "112701.277500", "112702.767500", "112704.257500", "112705.747500", "112707.237500", "112708.727500", "112710.217500", "112711.707500", "112713.197500", "112714.687500", "112716.177500", "112717.667500", "112719.157500", "112720.647500", "112722.137500", "112723.627500", "112725.117500", "112726.607500", "112728.097500", "112729.587500", "112731.077500", "112732.567500", "112734.057500", "112735.547500", "112737.037500", "112738.527500", "112740.017500", "112741.507500", "112742.997500", "112744.487500", "112745.977500", "112747.467500", "112748.957500", "112750.447500", "112751.937500", "112753.427500", "112754.917500", "112756.407500", "112757.897500", "112759.387500", "112800.877500", "112802.367500", "112803.857500", "112805.347500", "112806.837500", "112808.327500", "112809.817500", "112811.307500", "112812.797500", "112814.287500", "112815.777500", "112817.267500", "112818.757500", "112820.247500", "112821.737500", "112823.227500", "112824.717500", "112826.207500", "112827.697500", "112829.187500", "112830.677500", "112832.167500", "112833.657500", "112835.147500", "112836.637500", "112838.127500", "112839.617500", "112841.107500", "112842.597500", "112844.087500", "112845.577500", "112847.067500", "112848.557500", "112850.047500", "112851.537500", "112853.027500", "112854.517500", "112856.007500", "112857.497500", "112858.987500", "112900.477500", "112901.967500", "112903.457500", "112904.947500", "112906.437500", "112907.927500", "112909.417500", "112910.907500", "112912.397500", "112913.887500", "112915.377500", "112916.867500", "112918.357500", "112919.847500", "112921.337500", "112922.827500", "112924.317500", "112925.807500", "112927.297500", "112928.787500", "112930.277500", "112931.767500", "112933.257500", "112934.747500", "112936.237500", "112937.727500", "112939.217500", "112940.707500", "112942.197500", "112943.687500", "112945.177500", "112946.667500", "112948.157500", "112949.647500", "112951.137500", "112952.627500"],
      "ContentTime": ["112120.054000", "112120.058000", "112120.074000", "112120.077000", "112120.080000", "112120.082000", "112120.085000", "112120.088000", "112120.091000", "112120.094000", "112120.097000", "112120.100000", "112120.103000", "112120.106000", "112120.109000", "112120.111000", "112120.114000", "112120.117000", "112120.120000", "112120.123000", "112120.126000", "112120.133000", "112120.136000", "112120.138000", "112120.141000", "112120.144000", "112120.147000", "112120.150000", "112120.153000", "112120.156000", "112120.159000", "112120.162000", "112120.165000", "112120.167000", "112120.170000", "112120.173000", "112120.176000", "112120.179000", "112120.182000", "112140.024000", "112140.027000", "112140.034000", "112140.037000", "112140.040000", "112140.043000", "112140.046000", "112140.049000", "112140.052000", "112140.055000", "112140.058000", "112140.060000", "112140.063000", "112140.066000", "112140.069000", "112140.072000", "112140.075000", "112140.078000", "112140.081000", "112140.084000", "112200.024000", "112200.027000", "112200.030000", "112200.033000", "112200.036000", "112200.038000", "112200.041000", "112200.044000", "112200.047000", "112200.050000", "112200.053000", "112200.056000", "112200.059000", "112200.062000", "112200.065000", "112200.068000", "112200.070000", "112200.073000", "112200.076000", "112200.079000", "112220.024000", "112220.027000", "112220.030000", "112220.033000", "112220.036000", "112220.039000", "112220.041000", "112220.044000", "112220.047000", "112220.050000", "112220.053000", "112220.065000", "112220.068000", "112220.071000", "112220.074000", "112220.077000", "112220.080000", "112220.083000", "112220.085000", "112220.088000", "112300.025000", "112300.028000", "112300.031000", "112300.034000", "112300.037000", "112300.040000", "112300.043000", "112300.046000", "112300.048000", "112300.051000", "112300.054000", "112300.057000", "112300.060000", "112300.063000", "112300.066000", "112300.069000", "112300.072000", "112300.075000", "112300.077000", "112300.080000", "112300.083000", "112300.086000", "112300.089000", "112300.092000", "112300.095000", "112300.098000", "112300.101000", "112300.103000", "112300.106000", "112340.024000", "112340.027000", "112340.030000", "112340.033000", "112340.036000", "112340.039000", "112340.042000", "112340.044000", "112340.047000", "112340.050000", "112340.053000", "112340.056000", "112340.059000", "112340.062000", "112340.065000", "112340.068000", "112340.071000", "112340.073000", "112340.076000", "112340.079000", "112340.082000", "112340.085000", "112340.088000", "112340.091000", "112340.094000", "112340.097000", "112340.100000", "112420.024000", "112420.027000", "112420.030000", "112420.055000", "112420.058000", "112420.061000", "112420.064000", "112420.067000", "112420.070000", "112420.072000", "112420.075000", "112420.078000", "112420.081000", "112420.084000", "112420.087000", "112420.090000", "112420.093000", "112420.096000", "112420.099000", "112420.102000", "112420.105000", "112420.108000", "112420.110000", "112420.113000", "112420.116000", "112420.119000", "112420.122000", "112500.025000", "112500.028000", "112500.031000", "112500.034000", "112500.037000", "112500.040000", "112500.043000", "112500.046000", "112500.048000", "112500.051000", "112500.054000", "112500.057000", "112500.060000", "112500.063000", "112500.066000", "112500.069000", "112500.072000", "112500.075000", "112500.078000", "112500.081000", "112500.083000", "112500.086000", "112500.089000", "112500.092000", "112500.095000", "112500.098000", "112500.101000", "112540.024000", "112540.027000", "112540.030000", "112540.033000", "112540.036000", "112540.039000", "112540.042000", "112540.045000", "112540.047000", "112540.050000", "112540.053000", "112540.056000", "112540.059000", "112540.062000", "112540.065000", "112540.068000", "112540.071000", "112540.074000", "112540.077000", "112540.080000", "112540.082000", "112540.085000", "112540.088000", "112540.091000", "112540.094000", "112540.097000", "112540.100000", "112620.024000", "112620.027000", "112620.037000", "112620.040000", "112620.043000", "112620.046000", "112620.049000", "112620.052000", "112620.055000", "112620.058000", "112620.061000", "112620.064000", "112620.067000", "112620.070000", "112620.073000", "112620.076000", "112620.079000", "112620.082000", "112620.085000", "112620.088000", "112620.101000", "112620.104000", "112620.107000", "112620.109000", "112620.113000", "112620.115000", "112700.024000", "112700.027000", "112700.030000", "112700.033000", "112700.036000", "112700.039000", "112700.042000", "112700.044000", "112700.047000", "112700.050000", "112700.053000", "112700.056000", "112700.059000", "112700.062000", "112700.065000", "112700.068000", "112700.071000", "112700.074000", "112700.077000", "112700.079000", "112700.082000", "112700.085000", "112700.088000", "112700.091000", "112700.094000", "112700.116000", "112700.119000", "112740.024000", "112740.027000", "112740.030000", "112740.033000", "112740.036000", "112740.039000", "112740.042000", "112740.045000", "112740.048000", "112740.051000", "112740.054000", "112740.057000", "112740.060000", "112740.063000", "112740.066000", "112740.069000", "112740.072000", "112740.076000", "112740.078000", "112740.081000", "112740.084000", "112740.087000", "112740.090000", "112740.093000", "112740.096000", "112740.099000", "112740.102000", "112820.024000", "112820.027000", "112820.030000", "112820.033000", "112820.036000", "112820.039000", "112820.042000", "112820.045000", "112820.047000", "112820.050000", "112820.053000", "112820.056000", "112820.059000", "112820.062000", "112820.065000", "112820.068000", "112820.071000", "112820.074000", "112820.077000", "112820.080000", "112820.082000", "112820.085000", "112820.088000", "112820.091000", "112820.094000", "112820.097000", "112820.100000", "112900.024000", "112900.027000", "112900.030000", "112900.033000", "112900.036000", "112900.039000", "112900.042000", "112900.045000", "112900.048000", "112900.051000", "112900.054000", "112900.057000", "112900.060000", "112900.062000", "112900.065000", "112900.068000", "112900.071000", "112900.074000", "112900.077000", "112900.080000", "112900.083000", "112900.086000", "112900.089000", "112900.092000", "112900.095000", "112900.097000", "112900.100000", "112940.025000", "112940.028000", "112940.031000", "112940.034000", "112940.037000", "112940.040000", "112940.043000", "112940.046000", "112940.049000", "112940.052000", "112940.055000", "112940.058000", "112940.060000", "112940.063000", "112940.066000", "112940.069000", "112940.072000", "112940.075000", "112940.078000", "112940.081000", "112940.084000", "112940.087000", "112940.090000", "112940.093000", "112940.095000", "112940.098000", "112940.101000", "112955.258000", "112955.261000", "112955.264000", "112955.267000", "112955.270000", "112955.273000", "112955.276000", "112955.279000", "112955.282000", "112955.285000"],
      "InstanceCreationTime": ["112120.054000", "112120.058000", "112120.074000", "112120.077000", "112120.080000", "112120.082000", "112120.085000", "112120.088000", "112120.091000", "112120.094000", "112120.097000", "112120.100000", "112120.103000", "112120.106000", "112120.109000", "112120.111000", "112120.114000", "112120.117000", "112120.120000", "112120.123000", "112120.126000", "112120.133000", "112120.136000", "112120.138000", "112120.141000", "112120.144000", "112120.147000", "112120.150000", "112120.153000", "112120.156000", "112120.159000", "112120.162000", "112120.165000", "112120.167000", "112120.170000", "112120.173000", "112120.176000", "112120.179000", "112120.182000", "112140.024000", "112140.027000", "112140.034000", "112140.037000", "112140.040000", "112140.043000", "112140.046000", "112140.049000", "112140.052000", "112140.055000", "112140.058000", "112140.060000", "112140.063000", "112140.066000", "112140.069000", "112140.072000", "112140.075000", "112140.078000", "112140.081000", "112140.084000", "112200.024000", "112200.027000", "112200.030000", "112200.033000", "112200.036000", "112200.038000", "112200.041000", "112200.044000", "112200.047000", "112200.050000", "112200.053000", "112200.056000", "112200.059000", "112200.062000", "112200.065000", "112200.068000", "112200.070000", "112200.073000", "112200.076000", "112200.079000", "112220.024000", "112220.027000", "112220.030000", "112220.033000", "112220.036000", "112220.039000", "112220.041000", "112220.044000", "112220.047000", "112220.050000", "112220.053000", "112220.065000", "112220.068000", "112220.071000", "112220.074000", "112220.077000", "112220.080000", "112220.083000", "112220.085000", "112220.088000", "112300.025000", "112300.028000", "112300.031000", "112300.034000", "112300.037000", "112300.040000", "112300.043000", "112300.046000", "112300.048000", "112300.051000", "112300.054000", "112300.057000", "112300.060000", "112300.063000", "112300.066000", "112300.069000", "112300.072000", "112300.075000", "112300.077000", "112300.080000", "112300.083000", "112300.086000", "112300.089000", "112300.092000", "112300.095000", "112300.098000", "112300.101000", "112300.103000", "112300.106000", "112340.024000", "112340.027000", "112340.030000", "112340.033000", "112340.036000", "112340.039000", "112340.042000", "112340.044000", "112340.047000", "112340.050000", "112340.053000", "112340.056000", "112340.059000", "112340.062000", "112340.065000", "112340.068000", "112340.071000", "112340.073000", "112340.076000", "112340.079000", "112340.082000", "112340.085000", "112340.088000", "112340.091000", "112340.094000", "112340.097000", "112340.100000", "112420.024000", "112420.027000", "112420.030000", "112420.055000", "112420.058000", "112420.061000", "112420.064000", "112420.067000", "112420.070000", "112420.072000", "112420.075000", "112420.078000", "112420.081000", "112420.084000", "112420.087000", "112420.090000", "112420.093000", "112420.096000", "112420.099000", "112420.102000", "112420.105000", "112420.108000", "112420.110000", "112420.113000", "112420.116000", "112420.119000", "112420.122000", "112500.025000", "112500.028000", "112500.031000", "112500.034000", "112500.037000", "112500.040000", "112500.043000", "112500.046000", "112500.048000", "112500.051000", "112500.054000", "112500.057000", "112500.060000", "112500.063000", "112500.066000", "112500.069000", "112500.072000", "112500.075000", "112500.078000", "112500.081000", "112500.083000", "112500.086000", "112500.089000", "112500.092000", "112500.095000", "112500.098000", "112500.101000", "112540.024000", "112540.027000", "112540.030000", "112540.033000", "112540.036000", "112540.039000", "112540.042000", "112540.045000", "112540.047000", "112540.050000", "112540.053000", "112540.056000", "112540.059000", "112540.062000", "112540.065000", "112540.068000", "112540.071000", "112540.074000", "112540.077000", "112540.080000", "112540.082000", "112540.085000", "112540.088000", "112540.091000", "112540.094000", "112540.097000", "112540.100000", "112620.024000", "112620.027000", "112620.037000", "112620.040000", "112620.043000", "112620.046000", "112620.049000", "112620.052000", "112620.055000", "112620.058000", "112620.061000", "112620.064000", "112620.067000", "112620.070000", "112620.073000", "112620.076000", "112620.079000", "112620.082000", "112620.085000", "112620.088000", "112620.101000", "112620.104000", "112620.107000", "112620.109000", "112620.113000", "112620.115000", "112700.024000", "112700.027000", "112700.030000", "112700.033000", "112700.036000", "112700.039000", "112700.042000", "112700.044000", "112700.047000", "112700.050000", "112700.053000", "112700.056000", "112700.059000", "112700.062000", "112700.065000", "112700.068000", "112700.071000", "112700.074000", "112700.077000", "112700.079000", "112700.082000", "112700.085000", "112700.088000", "112700.091000", "112700.094000", "112700.116000", "112700.119000", "112740.024000", "112740.027000", "112740.030000", "112740.033000", "112740.036000", "112740.039000", "112740.042000", "112740.045000", "112740.048000", "112740.051000", "112740.054000", "112740.057000", "112740.060000", "112740.063000", "112740.066000", "112740.069000", "112740.072000", "112740.076000", "112740.078000", "112740.081000", "112740.084000", "112740.087000", "112740.090000", "112740.093000", "112740.096000", "112740.099000", "112740.102000", "112820.024000", "112820.027000", "112820.030000", "112820.033000", "112820.036000", "112820.039000", "112820.042000", "112820.045000", "112820.047000", "112820.050000", "112820.053000", "112820.056000", "112820.059000", "112820.062000", "112820.065000", "112820.068000", "112820.071000", "112820.074000", "112820.077000", "112820.080000", "112820.082000", "112820.085000", "112820.088000", "112820.091000", "112820.094000", "112820.097000", "112820.100000", "112900.024000", "112900.027000", "112900.030000", "112900.033000", "112900.036000", "112900.039000", "112900.042000", "112900.045000", "112900.048000", "112900.051000", "112900.054000", "112900.057000", "112900.060000", "112900.062000", "112900.065000", "112900.068000", "112900.071000", "112900.074000", "112900.077000", "112900.080000", "112900.083000", "112900.086000", "112900.089000", "112900.092000", "112900.095000", "112900.097000", "112900.100000", "112940.025000", "112940.028000", "112940.031000", "112940.034000", "112940.037000", "112940.040000", "112940.043000", "112940.046000", "112940.049000", "112940.052000", "112940.055000", "112940.058000", "112940.060000", "112940.063000", "112940.066000", "112940.069000", "112940.072000", "112940.075000", "112940.078000", "112940.081000", "112940.084000", "112940.087000", "112940.090000", "112940.093000", "112940.095000", "112940.098000", "112940.101000", "112955.258000", "112955.261000", "112955.264000", "112955.267000", "112955.270000", "112955.273000", "112955.276000", "112955.279000", "112955.282000", "112955.285000"],
