{
  "AcquisitionMatrixPE": 104,
  "AcquisitionNumber": 1,
  "AcquisitionTime": "10:42:59.970000",
  "BandwidthPerPixelPhaseEncode": 17.17,
  "BaseResolution": 104,
  "BodyPartExamined": "BRAIN",
  "CoilString": "HC1-7;NC1_2",
  "ConsistencyInfo": "N4_VE11C_LATEST_20160120",
  "ConversionSoftware": "dcm2niix",
  "ConversionSoftwareVersion": "v1.0.20190902",
  "DerivedVendorReportedEchoSpacing": 0.000560011,
  "DeviceSerialNumber": "167006",
  "DwellTime": 2.1e-06,
  "EchoTime": 0.037,
  "EchoTrainLength": 104,
  "EffectiveEchoSpacing": 0.000560011,
  "FlipAngle": 52,
  "ImageComments": "Unaliased_MB4_PE3_LB",
  "ImageOrientationPatientDICOM": [0.999367, 0.0201291, 0.0293195, -0.00313959, 0.871125, -0.491051],
  "ImageType": [
    "ORIGINAL",
    "PRIMARY",
    "M",
    "MB",
    "ND",
    "MOSAIC"
],
  "ImagingFrequency": 123.259,
  "InPlanePhaseEncodingDirectionDICOM": "COL",
  "InstitutionAddress": "Chemin_Queen-Mary_4565_Montreal_District_CA_H3W_1W5",
  "InstitutionName": "IUGM",
  "InstitutionalDepartmentName": "Department",
  "MRAcquisitionType": "2D",
  "MagneticFieldStrength": 3,
  "Manufacturer": "Siemens",
  "ManufacturersModelName": "Prisma_fit",
  "Modality": "MR",
  "MultibandAccelerationFactor": 4,
  "PartialFourier": 1,
  "PatientPosition": "HFS",
  "PercentPhaseFOV": 100,
  "PhaseEncodingDirection": "j",
  "PhaseEncodingSteps": 104,
  "PhaseResolution": 1,
  "PixelBandwidth": 2290,
  "ProcedureStepDescription": "games_shinobi",
  "ProtocolName": "func_task-shinobi_run-1",
  "PulseSequenceDetails": "%CustomerSeq%_cmrr_mbep2d_bold",
  "ReceiveCoilActiveElements": "HC1-7;NC1,2",
  "ReceiveCoilName": "HeadNeck_64",
  "ReconMatrixPE": 104,
  "RepetitionTime": 1.49,
  "SAR": 0.0373123,
  "ScanOptions": "FS",
  "ScanningSequence": "EP",
  "SequenceName": "epfid2d1_104",
  "SequenceVariant": "SK_SS",
  "SeriesDescription": "func_task-shinobi_run-1",
  "SeriesNumber": 9,
  "ShimSetting": [625, -7206, -8861, 313, -15, -205, 27, -13],
  "SliceThickness": 2,
  "SliceTiming": [0, 0.785, 0.1, 0.8825, 0.1975, 0.98, 0.295, 1.08, 0.3925, 1.1775, 0.49, 1.275, 0.59, 1.3725, 0.6875, 0, 0.785, 0.1, 0.8825, 0.1975, 0.98, 0.295, 1.08, 0.3925, 1.1775, 0.49, 1.275, 0.59, 1.3725, 0.6875, 0, 0.785, 0.1, 0.8825, 0.1975, 0.98, 0.295, 1.08, 0.3925, 1.1775, 0.49, 1.275, 0.59, 1.3725, 0.6875, 0, 0.785, 0.1, 0.8825, 0.1975, 0.98, 0.295, 1.08, 0.3925, 1.1775, 0.49, 1.275, 0.59, 1.3725, 0.6875],
  "SoftwareVersions": "syngo_MR_E11",
  "SpacingBetweenSlices": 2,
  "StationName": "MRC35049",
  "TaskName": "shinobi",
  "TotalReadoutTime": 0.0576811,
  "TxRefAmp": 253.335,
  "WipMemBlock": "cb2fd8d8-15c0-447e-bc46-1570c25c2260||Sequence: R016 ve11c/master r/e634e98; Dec 19 2017 11:00:25 by eja",
  "dcmmeta_affine": [
    [-1.9987348318099976, -0.0062791830860078335, 0.07085075229406357, 105.51435852050781],
    [-0.04025822505354881, 1.7422503232955933, -0.9812966585159302, -50.43727493286133],
    [0.05863900110125542, 0.98210209608078, 1.7412744760513306, -84.50853729248047],
    [0.0, 0.0, 0.0, 1.0]
],
  "dcmmeta_reorient_transform": [
    [0.0, -1.0, 0.0, 103.0],
    [1.0, 0.0, 0.0, 0.0],
    [0.0, 0.0, 1.0, 0.0],
    [0.0, 0.0, 0.0, 1.0]
],
  "dcmmeta_shape": [104, 104, 60, 466],
  "dcmmeta_slice_dim": 2,
  "dcmmeta_version": 0.6,
  "global": {
    "const": {
      "AcquisitionMatrix": [104, 0, 0, 104],
      "AngioFlag": "N",
      "BitsAllocated": 16,
      "BitsStored": 16,
      "BodyPartExamined": "BRAIN",
      "Columns": 832,
      "EchoNumbers": 1,
      "EchoTime": 37.0,
      "EchoTrainLength": 104,
      "FlipAngle": 52.0,
      "HighBit": 15,
      "ImageOrientationPatient": [0.99936739277984, 0.02012911253523, 0.02931949994414, -0.0031395915439, 0.87112514921737, -0.4910510333621],
      "ImagePositionPatient": [-830.12143823156, -777.84760812557, 352.78853115895],
      "ImageType": [
        "ORIGINAL",
        "PRIMARY",
        "M",
        "MB",
        "ND",
        "MOSAIC"
],
      "ImagedNucleus": "1H",
      "ImagingFrequency": 123.258999,
      "InPlanePhaseEncodingDirection": "COL",
      "MRAcquisitionType": "2D",
      "MagneticFieldStrength": 3.0,
      "Manufacturer": "SIEMENS",
      "ManufacturerModelName": "Prisma_fit",
      "Modality": "MR",
      "NumberOfAverages": 1.0,
      "NumberOfPhaseEncodingSteps": 104,
      "PercentPhaseFieldOfView": 100.0,
      "PercentSampling": 100.0,
      "PerformedProcedureStepStartTime": "102912.990000",
      "PhotometricInterpretation": "MONOCHROME2",
      "PixelBandwidth": 2290.0,
      "PixelRepresentation": 0,
      "PixelSpacing": [2.0, 2.0],
      "ProtocolName": "func_task-shinobi_run-1",
      "RepetitionTime": 1490.0,
      "Rows": 832,
      "SAR": 0.03731226334869,
      "SamplesPerPixel": 1,
      "ScanOptions": "FS",
      "ScanningSequence": "EP",
      "SequenceName": "epfid2d1_104",
      "SequenceVariant": [
        "SK",
        "SS"
],
      "SeriesDescription": "func_task-shinobi_run-1",
      "SeriesNumber": 9,
      "SeriesTime": "104420.052000",
      "SliceLocation": -45.091431609057,
      "SliceThickness": 2.0,
      "SmallestImagePixelValue": 0,
      "SoftwareVersions": "syngo MR E11",
      "SpacingBetweenSlices": 1.9999999460827,
      "SpecificCharacterSet": "ISO_IR 100",
      "StudyID": "1",
      "StudyTime": "102912.863000",
      "TransmitCoilName": "Body",
      "VariableFlipAngleFlag": "N",
      "WindowCenterWidthExplanation": "Algo1",
      "dBdt": 0.0},
    "slices": {}
  },
  "time": {
    "samples": {
      "AcquisitionNumber": [1, 2, 3, 4, 5, 6, 7, 8, 9, 10, 11, 12, 13, 14, 15, 16, 17, 18, 19, 20, 21, 22, 23, 24, 25, 26, 27, 28, 29, 30, 31, 32, 33, 34, 35, 36, 37, 38, 39, 40, 41, 42, 43, 44, 45, 46, 47, 48, 49, 50, 51, 52, 53, 54, 55, 56, 57, 58, 59, 60, 61, 62, 63, 64, 65, 66, 67, 68, 69, 70, 71, 72, 73, 74, 75, 76, 77, 78, 79, 80, 81, 82, 83, 84, 85, 86, 87, 88, 89, 90, 91, 92, 93, 94, 95, 96, 97, 98, 99, 100, 101, 102, 103, 104, 105, 106, 107, 108, 109, 110, 111, 112, 113, 114, 115, 116, 117, 118, 119, 120, 121, 122, 123, 124, 125, 126, 127, 128, 129, 130, 131, 132, 133, 134, 135, 136, 137, 138, 139, 140, 141, 142, 143, 144, 145, 146, 147, 148, 149, 150, 151, 152, 153, 154, 155, 156, 157, 158, 159, 160, 161, 162, 163, 164, 165, 166, 167, 168, 169, 170, 171, 172, 173, 174, 175, 176, 177, 178, 179, 180, 181, 182, 183, 184, 185, 186, 187, 188, 189, 190, 191, 192, 193, 194, 195, 196, 197, 198, 199, 200, 201, 202, 203, 204, 205, 206, 207, 208, 209, 210, 211, 212, 213, 214, 215, 216, 217, 218, 219, 220, 221, 222, 223, 224, 225, 226, 227, 228, 229, 230, 231, 232, 233, 234, 235, 236, 237, 238, 239, 240, 241, 242, 243, 244, 245, 246, 247, 248, 249, 250, 251, 252, 253, 254, 255, 256, 257, 258, 259, 260, 261, 262, 263, 264, 265, 266, 267, 268, 269, 270, 271, 272, 273, 274, 275, 276, 277, 278, 279, 280, 281, 282, 283, 284, 285, 286, 287, 288, 289, 290, 291, 292, 293, 294, 295, 296, 297, 298, 299, 300, 301, 302, 303, 304, 305, 306, 307, 308, 309, 310, 311, 312, 313, 314, 315, 316, 317, 318, 319, 320, 321, 322, 323, 324, 325, 326, 327, 328, 329, 330, 331, 332, 333, 334, 335, 336, 337, 338, 339, 340, 341, 342, 343, 344, 345, 346, 347, 348, 349, 350, 351, 352, 353, 354, 355, 356, 357, 358, 359, 360, 361, 362, 363, 364, 365, 366, 367, 368, 369, 370, 371, 372, 373, 374, 375, 376, 377, 378, 379, 380, 381, 382, 383, 384, 385, 386, 387, 388, 389, 390, 391, 392, 393, 394, 395, 396, 397, 398, 399, 400, 401, 402, 403, 404, 405, 406, 407, 408, 409, 410, 411, 412, 413, 414, 415, 416, 417, 418, 419, 420, 421, 422, 423, 424, 425, 426, 427, 428, 429, 430, 431, 432, 433, 434, 435, 436, 437, 438, 439, 440, 441, 442, 443, 444, 445, 446, 447, 448, 449, 450, 451, 452, 453, 454, 455, 456, 457, 458, 459, 460, 461, 462, 463, 464, 465, 466],
      "AcquisitionTime": ["104259.970000", "104301.460000", "104302.950000", "104304.440000", "104305.930000", "104307.420000", "104308.910000", "104310.400000", "104311.890000", "104313.380000", "104314.870000", "104316.360000", "104317.850000", "104319.340000", "104320.830000", "104322.320000", "104323.810000", "104325.300000", "104326.790000", "104328.280000", "104329.770000", "104331.260000", "104332.750000", "104334.240000", "104335.730000", "104337.220000", "104338.710000", "104340.200000", "104341.690000", "104343.180000", "104344.670000", "104346.160000", "104347.650000", "104349.140000", "104350.630000", "104352.120000", "104353.610000", "104355.100000", "104356.590000", "104358.080000", "104359.570000", "104401.060000", "104402.550000", "104404.040000", "104405.530000", "104407.020000", "104408.510000", "104410.000000", "104411.490000", "104412.980000", "104414.470000", "104415.960000", "104417.450000", "104418.940000", "104420.430000", "104421.920000", "104423.410000", "104424.900000", "104426.390000", "104427.880000", "104429.370000", "104430.860000", "104432.350000", "104433.840000", "104435.330000", "104436.820000", "104438.310000", "104439.800000", "104441.290000", "104442.780000", "104444.270000", "104445.760000", "104447.250000", "104448.740000", "104450.230000", "104451.720000", "104453.210000", "104454.700000", "104456.190000", "104457.680000", "104459.170000", "104500.660000", "104502.150000", "104503.640000", "104505.130000", "104506.620000", "104508.110000", "104509.600000", "104511.090000", "104512.580000", "104514.070000", "104515.560000", "104517.050000", "104518.540000", "104520.030000", "104521.520000", "104523.010000", "104524.500000", "104525.990000", "104527.480000", "104528.970000", "104530.460000", "104531.950000", "104533.440000", "104534.930000", "104536.420000", "104537.910000", "104539.400000", "104540.890000", "104542.380000", "104543.870000", "104545.360000", "104546.850000", "104548.340000", "104549.830000", "104551.320000", "104552.810000", "104554.300000", "104555.790000", "104557.280000", "104558.770000", "104600.260000", "104601.750000", "104603.240000", "104604.730000", "104606.220000", "104607.710000", "104609.200000", "104610.690000", "104612.180000", "104613.670000", "104615.160000", "104616.650000", "104618.140000", "104619.630000", "104621.120000", "104622.610000", "104624.100000", "104625.590000", "104627.080000", "104628.570000", "104630.060000", "104631.550000", "104633.040000", "104634.530000", "104636.020000", "104637.510000", "104639.000000", "104640.490000", "104641.980000", "104643.470000", "104644.960000", "104646.450000", "104647.940000", "104649.430000", "104650.920000", "104652.410000", "104653.900000", "104655.390000", "104656.880000", "104658.370000", "104659.860000", "104701.350000", "104702.840000", "104704.330000", "104705.820000", "104707.310000", "104708.800000", "104710.290000", "104711.780000", "104713.270000", "104714.760000", "104716.250000", "104717.740000", "104719.230000", "104720.720000", "104722.210000", "104723.700000", "104725.190000", "104726.680000", "104728.170000", "104729.660000", "104731.150000", "104732.640000", "104734.130000", "104735.620000", "104737.110000", "104738.600000", "104740.090000", "104741.580000", "104743.070000", "104744.560000", "104746.050000", "104747.540000", "104749.030000", "104750.520000", "104752.010000", "104753.500000", "104754.990000", "104756.480000", "104757.970000", "104759.460000", "104800.950000", "104802.440000", "104803.930000", "104805.420000", "104806.910000", "104808.400000", "104809.890000", "104811.380000", "104812.870000", "104814.360000", "104815.850000", "104817.340000", "104818.830000", "104820.320000", "104821.810000", "104823.300000", "104824.790000", "104826.280000", "104827.770000", "104829.260000", "104830.750000", "104832.240000", "104833.730000", "104835.220000", "104836.710000", "104838.200000", "104839.690000", "104841.180000", "104842.670000", "104844.160000", "104845.650000", "104847.140000", "104848.630000", "104850.120000", "104851.610000", "104853.100000", "104854.590000", "104856.080000", "104857.570000", "104859.060000", "104900.550000", "104902.040000", "104903.530000", "104905.020000", "104906.510000", "104908.000000", "104909.490000", "104910.980000", "104912.470000", "104913.960000", "104915.450000", "104916.940000", "104918.430000", "104919.920000", "104921.410000", "104922.900000", "104924.390000", "104925.880000", "104927.370000", "104928.860000", "104930.350000", "104931.840000", "104933.330000", "104934.820000", "104936.310000", "104937.800000", "104939.290000", "104940.780000", "104942.270000", "104943.760000", "104945.250000", "104946.740000", "104948.230000", "104949.720000", "104951.210000", "104952.700000", "104954.190000", "104955.680000", "104957.170000", "104958.660000", "105000.150000", "105001.640000", "105003.130000", "105004.620000", "105006.110000", "105007.600000", "105009.090000", "105010.580000", "105012.070000", "105013.560000", "105015.050000", "105016.540000", "105018.030000", "105019.520000", "105021.010000", "105022.500000", "105023.990000", "105025.480000", "105026.970000", "105028.460000", "105029.950000", "105031.440000", "105032.930000", "105034.420000", "105035.910000", "105037.400000", "105038.890000", "105040.380000", "105041.870000", "105043.360000", "105044.850000", "105046.340000", "105047.830000", "105049.320000", "105050.810000", "105052.300000", "105053.790000", "105055.280000", "105056.770000", "105058.260000", "105059.750000", "105101.240000", "105102.730000", "105104.220000", "105105.710000", "105107.200000", "105108.690000", "105110.180000", "105111.670000", "105113.160000", "105114.650000", "105116.140000", "105117.630000", "105119.120000", "105120.610000", "105122.100000", "105123.590000", "105125.080000", "105126.570000", "105128.060000", "105129.550000", "105131.040000", "105132.530000", "105134.020000", "105135.510000", "105137.000000", "105138.490000", "105139.980000", "105141.470000", "105142.960000", "105144.450000", "105145.940000", "105147.430000", "105148.920000", "105150.410000", "105151.900000", "105153.390000", "105154.880000", "105156.370000", "105157.860000", "105159.350000", "105200.840000", "105202.330000", "105203.820000", "105205.310000", "105206.800000", "105208.290000", "105209.780000", "105211.270000", "105212.760000", "105214.250000", "105215.740000", "105217.230000", "105218.720000", "105220.210000", "105221.700000", "105223.190000", "105224.680000", "105226.170000", "105227.660000", "105229.150000", "105230.640000", "105232.130000", "105233.620000", "105235.110000", "105236.600000", "105238.090000", "105239.580000", "105241.070000", "105242.560000", "105244.050000", "105245.540000", "105247.030000", "105248.520000", "105250.010000", "105251.500000", "105252.990000", "105254.480000", "105255.970000", "105257.460000", "105258.950000", "105300.440000", "105301.930000", "105303.420000", "105304.910000", "105306.400000", "105307.890000", "105309.380000", "105310.870000", "105312.360000", "105313.850000", "105315.340000", "105316.830000", "105318.320000", "105319.810000", "105321.300000", "105322.790000", "105324.280000", "105325.770000", "105327.260000", "105328.750000", "105330.240000", "105331.730000", "105333.220000", "105334.710000", "105336.200000", "105337.690000", "105339.180000", "105340.670000", "105342.160000", "105343.650000", "105345.140000", "105346.630000", "105348.120000", "105349.610000", "105351.100000", "105352.590000", "105354.080000", "105355.570000", "105357.060000", "105358.550000", "105400.040000", "105401.530000", "105403.020000", "105404.510000", "105406.000000", "105407.490000", "105408.980000", "105410.470000", "105411.960000", "105413.450000", "105414.940000", "105416.430000", "105417.920000", "105419.410000", "105420.900000", "105422.390000", "105423.880000", "105425.370000", "105426.860000", "105428.350000", "105429.840000", "105431.330000", "105432.820000"],
      "ContentTime": ["104420.055000", "104420.058000", "104420.061000", "104420.064000", "104420.067000", "104420.070000", "104420.073000", "104420.086000", "104420.089000", "104420.092000", "104420.098000", "104420.101000", "104420.104000", "104420.107000", "104420.115000", "104420.119000", "104420.121000", "104420.124000", "104420.127000", "104420.130000", "104420.133000", "104420.136000", "104440.024000", "104440.027000", "104440.030000", "104440.033000", "104440.036000", "104440.039000", "104440.042000", "104440.045000", "104440.048000", "104440.050000", "104440.053000", "104440.057000", "104440.059000", "104440.062000", "104440.065000", "104440.068000", "104440.071000", "104440.074000", "104440.077000", "104440.080000", "104500.024000", "104500.027000", "104500.030000", "104500.033000", "104500.036000", "104500.039000", "104500.042000", "104500.045000", "104500.048000", "104500.058000", "104500.061000", "104500.065000", "104500.068000", "104500.071000", "104500.073000", "104500.076000", "104500.079000", "104500.087000", "104500.090000", "104500.093000", "104520.024000", "104520.027000", "104520.030000", "104520.033000", "104520.036000", "104520.039000", "104520.041000", "104520.044000", "104520.047000", "104520.050000", "104520.053000", "104520.056000", "104520.059000", "104520.062000", "104520.065000", "104520.082000", "104520.085000", "104520.087000", "104520.090000", "104520.093000", "104540.025000", "104540.028000", "104540.031000", "104540.034000", "104540.037000", "104540.040000", "104540.043000", "104540.046000", "104540.049000", "104540.052000", "104540.055000", "104540.058000", "104540.060000", "104540.063000", "104540.066000", "104540.069000", "104540.072000", "104540.075000", "104540.078000", "104540.081000", "104620.024000", "104620.027000", "104620.030000", "104620.033000", "104620.036000", "104620.039000", "104620.042000", "104620.045000", "104620.048000", "104620.051000", "104620.054000", "104620.062000", "104620.065000", "104620.068000", "104620.071000", "104620.074000", "104620.077000", "104620.080000", "104620.083000", "104620.086000", "104620.089000", "104620.092000", "104620.095000", "104620.098000", "104620.101000", "104620.104000", "104620.107000", "104620.110000", "104620.113000", "104620.116000", "104620.119000", "104700.024000", "104700.027000", "104700.030000", "104700.033000", "104700.036000", "104700.039000", "104700.042000", "104700.045000", "104700.048000", "104700.051000", "104700.054000", "104700.057000", "104700.060000", "104700.063000", "104700.065000", "104700.068000", "104700.071000", "104700.074000", "104700.077000", "104700.080000", "104700.083000", "104700.086000", "104700.089000", "104700.092000", "104700.095000", "104700.098000", "104700.101000", "104740.024000", "104740.027000", "104740.030000", "104740.033000", "104740.036000", "104740.039000", "104740.042000", "104740.045000", "104740.048000", "104740.051000", "104740.054000", "104740.057000", "104740.060000", "104740.063000", "104740.065000", "104740.069000", "104740.072000", "104740.074000", "104740.077000", "104740.080000", "104740.083000", "104740.086000", "104740.089000", "104740.092000", "104740.095000", "104740.098000", "104740.101000", "104820.024000", "104820.027000", "104820.030000", "104820.033000", "104820.036000", "104820.039000", "104820.042000", "104820.045000", "104820.048000", "104820.051000", "104820.054000", "104820.057000", "104820.060000", "104820.063000", "104820.066000", "104820.069000", "104820.072000", "104820.075000", "104820.078000", "104820.081000", "104820.084000", "104820.087000", "104820.090000", "104820.093000", "104820.096000", "104820.099000", "104820.102000", "104900.024000", "104900.027000", "104900.030000", "104900.033000", "104900.036000", "104900.039000", "104900.042000", "104900.045000", "104900.048000", "104900.051000", "104900.054000", "104900.057000", "104900.060000", "104900.063000", "104900.066000", "104900.069000", "104900.072000", "104900.075000", "104900.078000", "104900.087000", "104900.090000", "104900.093000", "104900.096000", "104900.099000", "104900.102000", "104900.105000", "104940.024000", "104940.027000", "104940.030000", "104940.033000", "104940.036000", "104940.039000", "104940.042000", "104940.045000", "104940.048000", "104940.051000", "104940.054000", "104940.057000", "104940.060000", "104940.062000", "104940.065000", "104940.068000", "104940.071000", "104940.074000", "104940.086000", "104940.089000", "104940.092000", "104940.095000", "104940.098000", "104940.101000", "104940.104000", "104940.107000", "104940.110000", "105020.025000", "105020.028000", "105020.031000", "105020.034000", "105020.037000", "105020.040000", "105020.043000", "105020.046000", "105020.049000", "105020.052000", "105020.055000", "105020.058000", "105020.061000", "105020.064000", "105020.067000", "105020.070000", "105020.073000", "105020.076000", "105020.079000", "105020.082000", "105020.085000", "105020.088000", "105020.091000", "105020.094000", "105020.097000", "105020.100000", "105020.103000", "105100.024000", "105100.027000", "105100.030000", "105100.033000", "105100.036000", "105100.039000", "105100.042000", "105100.045000", "105100.048000", "105100.051000", "105100.054000", "105100.057000", "105100.060000", "105100.063000", "105100.066000", "105100.069000", "105100.072000", "105100.075000", "105100.078000", "105100.081000", "105100.084000", "105100.087000", "105100.090000", "105100.093000", "105100.095000", "105100.099000", "105100.101000", "105140.024000", "105140.027000", "105140.030000", "105140.033000", "105140.036000", "105140.039000", "105140.042000", "105140.045000", "105140.048000", "105140.051000", "105140.054000", "105140.057000", "105140.060000", "105140.063000", "105140.066000", "105140.069000", "105140.072000", "105140.075000", "105140.078000", "105140.081000", "105140.084000", "105140.087000", "105140.089000", "105140.092000", "105140.095000", "105140.098000", "105140.101000", "105220.024000", "105220.027000", "105220.030000", "105220.033000", "105220.036000", "105220.040000", "105220.043000", "105220.046000", "105220.050000", "105220.053000", "105220.056000", "105220.059000", "105220.062000", "105220.065000", "105220.069000", "105220.072000", "105220.075000", "105220.079000", "105220.081000", "105220.085000", "105220.088000", "105220.092000", "105220.095000", "105220.098000", "105220.101000", "105220.104000", "105220.107000", "105300.024000", "105300.027000", "105300.034000", "105300.037000", "105300.040000", "105300.043000", "105300.046000", "105300.049000", "105300.052000", "105300.055000", "105300.058000", "105300.061000", "105300.063000", "105300.066000", "105300.069000", "105300.072000", "105300.075000", "105300.078000", "105300.081000", "105300.084000", "105300.087000", "105300.090000", "105300.093000", "105300.096000", "105300.099000", "105300.101000", "105300.105000", "105340.024000", "105340.027000", "105340.030000", "105340.033000", "105340.036000", "105340.039000", "105340.042000", "105340.045000", "105340.048000", "105340.051000", "105340.054000", "105340.057000", "105340.060000", "105340.063000", "105340.067000", "105340.070000", "105340.073000", "105340.076000", "105340.079000", "105340.082000", "105340.085000", "105340.088000", "105340.091000", "105340.094000", "105340.097000", "105340.100000", "105420.024000", "105420.027000", "105420.030000", "105420.044000", "105420.047000", "105420.050000", "105420.053000", "105420.056000", "105420.059000", "105420.062000", "105420.065000", "105420.068000", "105420.071000", "105420.074000", "105420.076000", "105420.080000", "105420.083000", "105420.086000", "105420.088000", "105420.092000", "105420.094000", "105420.097000", "105420.100000", "105420.103000", "105420.106000", "105420.109000", "105420.112000", "105435.968000", "105435.971000", "105435.974000", "105435.977000", "105435.980000", "105435.983000", "105435.986000", "105435.989000", "105435.992000", "105435.995000", "105435.998000"],
