{
  "AcquisitionMatrixPE": 104,
  "AcquisitionNumber": 1,
  "AcquisitionTime": "10:55:48.570000",
  "BandwidthPerPixelPhaseEncode": 17.17,
  "BaseResolution": 104,
  "BodyPartExamined": "BRAIN",
  "CoilString": "HC1-7;NC1_2",
  "ConsistencyInfo": "N4_VE11C_LATEST_20160120",
  "ConversionSoftware": "dcm2niix",
  "ConversionSoftwareVersion": "v1.0.20190902",
  "DerivedVendorReportedEchoSpacing": 0.000560011,
  "DeviceSerialNumber": "167006",
  "DwellTime": 2.1e-06,
  "EchoTime": 0.037,
  "EchoTrainLength": 104,
  "EffectiveEchoSpacing": 0.000560011,
  "FlipAngle": 52,
  "ImageComments": "Unaliased_MB4_PE3_LB",
  "ImageOrientationPatientDICOM": [0.999367, 0.0201291, 0.0293195, -0.00313959, 0.871125, -0.491051],
  "ImageType": [
    "ORIGINAL",
    "PRIMARY",
    "M",
    "MB",
    "ND",
    "MOSAIC"
],
  "ImagingFrequency": 123.259,
  "InPlanePhaseEncodingDirectionDICOM": "COL",
  "InstitutionAddress": "Chemin_Queen-Mary_4565_Montreal_District_CA_H3W_1W5",
  "InstitutionName": "IUGM",
  "InstitutionalDepartmentName": "Department",
  "MRAcquisitionType": "2D",
  "MagneticFieldStrength": 3,
  "Manufacturer": "Siemens",
  "ManufacturersModelName": "Prisma_fit",
  "Modality": "MR",
  "MultibandAccelerationFactor": 4,
  "PartialFourier": 1,
  "PatientPosition": "HFS",
  "PercentPhaseFOV": 100,
  "PhaseEncodingDirection": "j",
  "PhaseEncodingSteps": 104,
  "PhaseResolution": 1,
  "PixelBandwidth": 2290,
  "ProcedureStepDescription": "games_shinobi",
  "ProtocolName": "func_task-shinobi_run-2",
  "PulseSequenceDetails": "%CustomerSeq%_cmrr_mbep2d_bold",
  "ReceiveCoilActiveElements": "HC1-7;NC1,2",
  "ReceiveCoilName": "HeadNeck_64",
  "ReconMatrixPE": 104,
  "RepetitionTime": 1.49,
  "SAR": 0.0373123,
  "ScanOptions": "FS",
  "ScanningSequence": "EP",
  "SequenceName": "epfid2d1_104",
  "SequenceVariant": "SK_SS",
  "SeriesDescription": "func_task-shinobi_run-2",
  "SeriesNumber": 11,
  "ShimSetting": [625, -7206, -8861, 313, -15, -205, 27, -13],
  "SliceThickness": 2,
  "SliceTiming": [0, 0.785, 0.0975, 0.8825, 0.195, 0.98, 0.295, 1.0775, 0.3925, 1.175, 0.49, 1.275, 0.5875, 1.3725, 0.685, 0, 0.785, 0.0975, 0.8825, 0.195, 0.98, 0.295, 1.0775, 0.3925, 1.175, 0.49, 1.275, 0.5875, 1.3725, 0.685, 0, 0.785, 0.0975, 0.8825, 0.195, 0.98, 0.295, 1.0775, 0.3925, 1.175, 0.49, 1.275, 0.5875, 1.3725, 0.685, 0, 0.785, 0.0975, 0.8825, 0.195, 0.98, 0.295, 1.0775, 0.3925, 1.175, 0.49, 1.275, 0.5875, 1.3725, 0.685],
  "SoftwareVersions": "syngo_MR_E11",
  "SpacingBetweenSlices": 2,
  "StationName": "MRC35049",
  "TaskName": "shinobi",
  "TotalReadoutTime": 0.0576811,
  "TxRefAmp": 253.335,
  "WipMemBlock": "a4e12d03-db4d-486c-80cb-467be431c34c||Sequence: R016 ve11c/master r/e634e98; Dec 19 2017 11:00:25 by eja",
  "dcmmeta_affine": [
    [-1.9987348318099976, -0.0062791830860078335, 0.07085075229406357, 105.51435852050781],
    [-0.04025822505354881, 1.7422503232955933, -0.9812966585159302, -50.43727493286133],
    [0.05863900110125542, 0.98210209608078, 1.7412744760513306, -84.50853729248047],
    [0.0, 0.0, 0.0, 1.0]
],
  "dcmmeta_reorient_transform": [
    [0.0, -1.0, 0.0, 103.0],
    [1.0, 0.0, 0.0, 0.0],
    [0.0, 0.0, 1.0, 0.0],
    [0.0, 0.0, 0.0, 1.0]
],
  "dcmmeta_shape": [104, 104, 60, 468],
  "dcmmeta_slice_dim": 2,
  "dcmmeta_version": 0.6,
  "global": {
    "const": {
      "AcquisitionMatrix": [104, 0, 0, 104],
      "AngioFlag": "N",
      "BitsAllocated": 16,
      "BitsStored": 16,
      "BodyPartExamined": "BRAIN",
      "Columns": 832,
      "EchoNumbers": 1,
      "EchoTime": 37.0,
      "EchoTrainLength": 104,
      "FlipAngle": 52.0,
      "HighBit": 15,
      "ImageOrientationPatient": [0.99936739277984, 0.02012911253523, 0.02931949994414, -0.0031395915439, 0.87112514921737, -0.4910510333621],
      "ImagePositionPatient": [-830.12143823156, -777.84760812557, 352.78853115895],
      "ImageType": [
        "ORIGINAL",
        "PRIMARY",
        "M",
        "MB",
        "ND",
        "MOSAIC"
],
      "ImagedNucleus": "1H",
      "ImagingFrequency": 123.259006,
      "InPlanePhaseEncodingDirection": "COL",
      "MRAcquisitionType": "2D",
      "MagneticFieldStrength": 3.0,
      "Manufacturer": "SIEMENS",
      "ManufacturerModelName": "Prisma_fit",
      "Modality": "MR",
      "NumberOfAverages": 1.0,
      "NumberOfPhaseEncodingSteps": 104,
      "PercentPhaseFieldOfView": 100.0,
      "PercentSampling": 100.0,
      "PerformedProcedureStepStartTime": "102912.990000",
      "PhotometricInterpretation": "MONOCHROME2",
      "PixelBandwidth": 2290.0,
      "PixelRepresentation": 0,
      "PixelSpacing": [2.0, 2.0],
      "ProtocolName": "func_task-shinobi_run-2",
      "RepetitionTime": 1490.0,
      "Rows": 832,
      "SAR": 0.03731226334869,
      "SamplesPerPixel": 1,
      "ScanOptions": "FS",
      "ScanningSequence": "EP",
      "SequenceName": "epfid2d1_104",
      "SequenceVariant": [
        "SK",
        "SS"
],
      "SeriesDescription": "func_task-shinobi_run-2",
      "SeriesNumber": 11,
      "SeriesTime": "105708.525000",
      "SliceLocation": -45.091431609057,
      "SliceThickness": 2.0,
      "SmallestImagePixelValue": 0,
      "SoftwareVersions": "syngo MR E11",
      "SpacingBetweenSlices": 1.9999999460827,
      "SpecificCharacterSet": "ISO_IR 100",
      "StudyID": "1",
      "StudyTime": "102912.863000",
      "TransmitCoilName": "Body",
      "VariableFlipAngleFlag": "N",
      "WindowCenterWidthExplanation": "Algo1",
      "dBdt": 0.0},
    "slices": {}
  },
  "time": {
    "samples": {
      "AcquisitionNumber": [1, 2, 3, 4, 5, 6, 7, 8, 9, 10, 11, 12, 13, 14, 15, 16, 17, 18, 19, 20, 21, 22, 23, 24, 25, 26, 27, 28, 29, 30, 31, 32, 33, 34, 35, 36, 37, 38, 39, 40, 41, 42, 43, 44, 45, 46, 47, 48, 49, 50, 51, 52, 53, 54, 55, 56, 57, 58, 59, 60, 61, 62, 63, 64, 65, 66, 67, 68, 69, 70, 71, 72, 73, 74, 75, 76, 77, 78, 79, 80, 81, 82, 83, 84, 85, 86, 87, 88, 89, 90, 91, 92, 93, 94, 95, 96, 97, 98, 99, 100, 101, 102, 103, 104, 105, 106, 107, 108, 109, 110, 111, 112, 113, 114, 115, 116, 117, 118, 119, 120, 121, 122, 123, 124, 125, 126, 127, 128, 129, 130, 131, 132, 133, 134, 135, 136, 137, 138, 139, 140, 141, 142, 143, 144, 145, 146, 147, 148, 149, 150, 151, 152, 153, 154, 155, 156, 157, 158, 159, 160, 161, 162, 163, 164, 165, 166, 167, 168, 169, 170, 171, 172, 173, 174, 175, 176, 177, 178, 179, 180, 181, 182, 183, 184, 185, 186, 187, 188, 189, 190, 191, 192, 193, 194, 195, 196, 197, 198, 199, 200, 201, 202, 203, 204, 205, 206, 207, 208, 209, 210, 211, 212, 213, 214, 215, 216, 217, 218, 219, 220, 221, 222, 223, 224, 225, 226, 227, 228, 229, 230, 231, 232, 233, 234, 235, 236, 237, 238, 239, 240, 241, 242, 243, 244, 245, 246, 247, 248, 249, 250, 251, 252, 253, 254, 255, 256, 257, 258, 259, 260, 261, 262, 263, 264, 265, 266, 267, 268, 269, 270, 271, 272, 273, 274, 275, 276, 277, 278, 279, 280, 281, 282, 283, 284, 285, 286, 287, 288, 289, 290, 291, 292, 293, 294, 295, 296, 297, 298, 299, 300, 301, 302, 303, 304, 305, 306, 307, 308, 309, 310, 311, 312, 313, 314, 315, 316, 317, 318, 319, 320, 321, 322, 323, 324, 325, 326, 327, 328, 329, 330, 331, 332, 333, 334, 335, 336, 337, 338, 339, 340, 341, 342, 343, 344, 345, 346, 347, 348, 349, 350, 351, 352, 353, 354, 355, 356, 357, 358, 359, 360, 361, 362, 363, 364, 365, 366, 367, 368, 369, 370, 371, 372, 373, 374, 375, 376, 377, 378, 379, 380, 381, 382, 383, 384, 385, 386, 387, 388, 389, 390, 391, 392, 393, 394, 395, 396, 397, 398, 399, 400, 401, 402, 403, 404, 405, 406, 407, 408, 409, 410, 411, 412, 413, 414, 415, 416, 417, 418, 419, 420, 421, 422, 423, 424, 425, 426, 427, 428, 429, 430, 431, 432, 433, 434, 435, 436, 437, 438, 439, 440, 441, 442, 443, 444, 445, 446, 447, 448, 449, 450, 451, 452, 453, 454, 455, 456, 457, 458, 459, 460, 461, 462, 463, 464, 465, 466, 467, 468],
      "AcquisitionTime": ["105548.570000", "105550.060000", "105551.550000", "105553.040000", "105554.530000", "105556.020000", "105557.510000", "105559.000000", "105600.490000", "105601.980000", "105603.470000", "105604.960000", "105606.450000", "105607.940000", "105609.430000", "105610.920000", "105612.410000", "105613.900000", "105615.390000", "105616.880000", "105618.370000", "105619.860000", "105621.350000", "105622.840000", "105624.330000", "105625.820000", "105627.310000", "105628.800000", "105630.290000", "105631.780000", "105633.270000", "105634.760000", "105636.250000", "105637.740000", "105639.230000", "105640.720000", "105642.210000", "105643.700000", "105645.190000", "105646.680000", "105648.170000", "105649.660000", "105651.150000", "105652.640000", "105654.130000", "105655.620000", "105657.110000", "105658.600000", "105700.090000", "105701.580000", "105703.070000", "105704.560000", "105706.050000", "105707.540000", "105709.030000", "105710.520000", "105712.010000", "105713.500000", "105714.990000", "105716.480000", "105717.970000", "105719.460000", "105720.950000", "105722.440000", "105723.930000", "105725.420000", "105726.910000", "105728.400000", "105729.890000", "105731.380000", "105732.870000", "105734.360000", "105735.850000", "105737.340000", "105738.830000", "105740.320000", "105741.810000", "105743.300000", "105744.790000", "105746.280000", "105747.770000", "105749.260000", "105750.750000", "105752.240000", "105753.730000", "105755.220000", "105756.710000", "105758.200000", "105759.690000", "105801.180000", "105802.670000", "105804.160000", "105805.650000", "105807.140000", "105808.630000", "105810.120000", "105811.610000", "105813.100000", "105814.590000", "105816.080000", "105817.570000", "105819.060000", "105820.550000", "105822.040000", "105823.530000", "105825.020000", "105826.510000", "105828.000000", "105829.490000", "105830.980000", "105832.470000", "105833.960000", "105835.450000", "105836.940000", "105838.430000", "105839.920000", "105841.410000", "105842.900000", "105844.390000", "105845.880000", "105847.370000", "105848.860000", "105850.350000", "105851.840000", "105853.330000", "105854.820000", "105856.310000", "105857.800000", "105859.290000", "105900.780000", "105902.270000", "105903.760000", "105905.250000", "105906.740000", "105908.230000", "105909.720000", "105911.210000", "105912.700000", "105914.190000", "105915.680000", "105917.170000", "105918.660000", "105920.150000", "105921.640000", "105923.130000", "105924.620000", "105926.110000", "105927.600000", "105929.090000", "105930.580000", "105932.070000", "105933.560000", "105935.050000", "105936.540000", "105938.030000", "105939.520000", "105941.010000", "105942.500000", "105943.990000", "105945.480000", "105946.970000", "105948.460000", "105949.950000", "105951.440000", "105952.930000", "105954.420000", "105955.910000", "105957.400000", "105958.890000", "110000.380000", "110001.870000", "110003.360000", "110004.850000", "110006.340000", "110007.830000", "110009.320000", "110010.810000", "110012.300000", "110013.790000", "110015.280000", "110016.770000", "110018.260000", "110019.750000", "110021.240000", "110022.730000", "110024.220000", "110025.710000", "110027.200000", "110028.690000", "110030.180000", "110031.670000", "110033.160000", "110034.650000", "110036.140000", "110037.630000", "110039.120000", "110040.610000", "110042.100000", "110043.590000", "110045.080000", "110046.570000", "110048.060000", "110049.550000", "110051.040000", "110052.530000", "110054.020000", "110055.510000", "110057.000000", "110058.490000", "110059.980000", "110101.470000", "110102.960000", "110104.450000", "110105.940000", "110107.430000", "110108.920000", "110110.410000", "110111.900000", "110113.390000", "110114.880000", "110116.370000", "110117.860000", "110119.350000", "110120.840000", "110122.330000", "110123.820000", "110125.310000", "110126.800000", "110128.290000", "110129.780000", "110131.270000", "110132.760000", "110134.250000", "110135.740000", "110137.230000", "110138.720000", "110140.210000", "110141.700000", "110143.190000", "110144.680000", "110146.170000", "110147.660000", "110149.150000", "110150.640000", "110152.130000", "110153.620000", "110155.110000", "110156.600000", "110158.090000", "110159.580000", "110201.070000", "110202.560000", "110204.050000", "110205.540000", "110207.030000", "110208.520000", "110210.010000", "110211.500000", "110212.990000", "110214.480000", "110215.970000", "110217.460000", "110218.950000", "110220.440000", "110221.930000", "110223.420000", "110224.910000", "110226.400000", "110227.890000", "110229.380000", "110230.870000", "110232.360000", "110233.850000", "110235.340000", "110236.830000", "110238.320000", "110239.810000", "110241.300000", "110242.790000", "110244.280000", "110245.770000", "110247.260000", "110248.750000", "110250.240000", "110251.730000", "110253.220000", "110254.710000", "110256.200000", "110257.690000", "110259.180000", "110300.670000", "110302.160000", "110303.650000", "110305.140000", "110306.630000", "110308.120000", "110309.610000", "110311.100000", "110312.590000", "110314.080000", "110315.570000", "110317.060000", "110318.550000", "110320.040000", "110321.530000", "110323.020000", "110324.510000", "110326.000000", "110327.490000", "110328.980000", "110330.470000", "110331.960000", "110333.450000", "110334.940000", "110336.430000", "110337.920000", "110339.410000", "110340.900000", "110342.390000", "110343.880000", "110345.370000", "110346.860000", "110348.350000", "110349.840000", "110351.330000", "110352.820000", "110354.310000", "110355.800000", "110357.290000", "110358.780000", "110400.270000", "110401.760000", "110403.250000", "110404.740000", "110406.230000", "110407.720000", "110409.210000", "110410.700000", "110412.190000", "110413.680000", "110415.170000", "110416.660000", "110418.150000", "110419.640000", "110421.130000", "110422.620000", "110424.110000", "110425.600000", "110427.090000", "110428.580000", "110430.070000", "110431.560000", "110433.050000", "110434.540000", "110436.030000", "110437.520000", "110439.010000", "110440.500000", "110441.990000", "110443.480000", "110444.970000", "110446.460000", "110447.950000", "110449.440000", "110450.930000", "110452.420000", "110453.910000", "110455.400000", "110456.890000", "110458.380000", "110459.870000", "110501.360000", "110502.850000", "110504.340000", "110505.830000", "110507.320000", "110508.810000", "110510.300000", "110511.790000", "110513.280000", "110514.770000", "110516.260000", "110517.750000", "110519.240000", "110520.730000", "110522.220000", "110523.710000", "110525.200000", "110526.690000", "110528.180000", "110529.670000", "110531.160000", "110532.650000", "110534.140000", "110535.630000", "110537.120000", "110538.610000", "110540.100000", "110541.590000", "110543.080000", "110544.570000", "110546.060000", "110547.550000", "110549.040000", "110550.530000", "110552.020000", "110553.510000", "110555.000000", "110556.490000", "110557.980000", "110559.470000", "110600.960000", "110602.450000", "110603.940000", "110605.430000", "110606.920000", "110608.410000", "110609.900000", "110611.390000", "110612.880000", "110614.370000", "110615.860000", "110617.350000", "110618.840000", "110620.330000", "110621.820000", "110623.310000", "110624.800000", "110626.290000", "110627.780000", "110629.270000", "110630.760000", "110632.250000", "110633.740000", "110635.230000", "110636.720000", "110638.210000", "110639.700000", "110641.190000", "110642.680000", "110644.170000", "110645.660000", "110647.150000", "110648.640000", "110650.130000", "110651.620000", "110653.110000", "110654.600000", "110656.090000", "110657.580000", "110659.070000", "110700.560000", "110702.050000", "110703.540000", "110705.030000", "110706.520000", "110708.010000", "110709.500000", "110710.990000", "110712.480000", "110713.970000", "110715.460000", "110716.950000", "110718.440000", "110719.930000", "110721.420000", "110722.910000", "110724.400000"],
      "ContentTime": ["105708.528000", "105708.531000", "105708.534000", "105708.537000", "105708.541000", "105708.544000", "105708.547000", "105708.549000", "105708.553000", "105708.556000", "105708.559000", "105708.562000", "105708.565000", "105708.570000", "105708.573000", "105708.576000", "105708.580000", "105708.582000", "105708.585000", "105708.588000", "105708.591000", "105708.600000", "105708.603000", "105708.606000", "105708.609000", "105708.612000", "105708.615000", "105728.492000", "105728.495000", "105728.498000", "105728.501000", "105728.504000", "105728.507000", "105728.510000", "105728.512000", "105728.516000", "105728.519000", "105728.521000", "105728.524000", "105728.528000", "105728.530000", "105728.533000", "105728.536000", "105728.539000", "105728.542000", "105728.545000", "105728.548000", "105748.492000", "105748.495000", "105748.498000", "105748.509000", "105748.512000", "105748.515000", "105748.518000", "105748.521000", "105748.524000", "105748.527000", "105748.530000", "105748.533000", "105748.536000", "105748.539000", "105748.542000", "105748.544000", "105748.547000", "105748.550000", "105748.553000", "105748.556000", "105808.492000", "105808.495000", "105808.498000", "105808.501000", "105808.504000", "105808.507000", "105808.510000", "105808.513000", "105808.515000", "105808.518000", "105808.522000", "105808.525000", "105808.527000", "105808.530000", "105808.533000", "105808.536000", "105808.539000", "105808.542000", "105808.545000", "105808.548000", "105808.551000", "105848.493000", "105848.496000", "105848.499000", "105848.502000", "105848.514000", "105848.517000", "105848.520000", "105848.523000", "105848.526000", "105848.529000", "105848.532000", "105848.535000", "105848.538000", "105848.541000", "105848.544000", "105848.547000", "105848.550000", "105848.553000", "105848.556000", "105848.559000", "105848.561000", "105848.564000", "105848.567000", "105848.570000", "105848.573000", "105848.576000", "105848.579000", "105848.582000", "105848.585000", "105848.588000", "105848.591000", "105848.594000", "105928.493000", "105928.496000", "105928.499000", "105928.502000", "105928.505000", "105928.508000", "105928.511000", "105928.514000", "105928.517000", "105928.531000", "105928.534000", "105928.537000", "105928.540000", "105928.543000", "105928.546000", "105928.549000", "105928.552000", "105928.555000", "105928.558000", "105928.561000", "105928.564000", "105928.567000", "105928.570000", "105928.573000", "105928.576000", "105928.579000", "105928.582000", "110008.492000", "110008.495000", "110008.498000", "110008.501000", "110008.504000", "110008.507000", "110008.510000", "110008.513000", "110008.516000", "110008.519000", "110008.522000", "110008.525000", "110008.528000", "110008.531000", "110008.534000", "110008.537000", "110008.540000", "110008.542000", "110008.546000", "110008.548000", "110008.551000", "110008.554000", "110008.557000", "110008.560000", "110008.563000", "110008.566000", "110008.569000", "110048.493000", "110048.496000", "110048.499000", "110048.502000", "110048.505000", "110048.508000", "110048.511000", "110048.515000", "110048.518000", "110048.521000", "110048.524000", "110048.527000", "110048.530000", "110048.533000", "110048.536000", "110048.539000", "110048.542000", "110048.545000", "110048.548000", "110048.551000", "110048.554000", "110048.557000", "110048.560000", "110048.563000", "110048.566000", "110048.569000", "110128.493000", "110128.496000", "110128.499000", "110128.502000", "110128.505000", "110128.508000", "110128.511000", "110128.514000", "110128.517000", "110128.520000", "110128.523000", "110128.526000", "110128.529000", "110128.532000", "110128.534000", "110128.537000", "110128.540000", "110128.543000", "110128.546000", "110128.549000", "110128.552000", "110128.555000", "110128.558000", "110128.561000", "110128.564000", "110128.567000", "110128.570000", "110208.492000", "110208.495000", "110208.498000", "110208.501000", "110208.504000", "110208.507000", "110208.510000", "110208.513000", "110208.516000", "110208.519000", "110208.522000", "110208.525000", "110208.528000", "110208.531000", "110208.534000", "110208.537000", "110208.540000", "110208.543000", "110208.546000", "110208.549000", "110208.552000", "110208.555000", "110208.558000", "110208.561000", "110208.564000", "110208.567000", "110208.570000", "110248.492000", "110248.495000", "110248.498000", "110248.501000", "110248.504000", "110248.507000", "110248.510000", "110248.513000", "110248.516000", "110248.519000", "110248.522000", "110248.525000", "110248.528000", "110248.531000", "110248.534000", "110248.537000", "110248.540000", "110248.543000", "110248.546000", "110248.549000", "110248.552000", "110248.555000", "110248.557000", "110248.560000", "110248.563000", "110248.566000", "110248.569000", "110328.493000", "110328.496000", "110328.499000", "110328.503000", "110328.506000", "110328.508000", "110328.512000", "110328.514000", "110328.518000", "110328.521000", "110328.524000", "110328.526000", "110328.530000", "110328.533000", "110328.535000", "110328.538000", "110328.542000", "110328.544000", "110328.547000", "110328.550000", "110328.553000", "110328.556000", "110328.559000", "110328.562000", "110328.565000", "110328.568000", "110328.571000", "110408.493000", "110408.496000", "110408.499000", "110408.502000", "110408.505000", "110408.508000", "110408.511000", "110408.514000", "110408.517000", "110408.520000", "110408.523000", "110408.526000", "110408.529000", "110408.532000", "110408.535000", "110408.538000", "110408.541000", "110408.544000", "110408.559000", "110408.563000", "110408.565000", "110408.568000", "110408.571000", "110408.574000", "110408.577000", "110408.580000", "110408.583000", "110448.492000", "110448.495000", "110448.498000", "110448.501000", "110448.504000", "110448.507000", "110448.510000", "110448.513000", "110448.517000", "110448.520000", "110448.523000", "110448.526000", "110448.530000", "110448.533000", "110448.536000", "110448.540000", "110448.543000", "110448.546000", "110448.549000", "110448.552000", "110448.555000", "110448.557000", "110448.561000", "110448.564000", "110448.567000", "110448.570000", "110528.493000", "110528.496000", "110528.499000", "110528.502000", "110528.505000", "110528.508000", "110528.511000", "110528.514000", "110528.517000", "110528.520000", "110528.523000", "110528.526000", "110528.529000", "110528.532000", "110528.535000", "110528.538000", "110528.541000", "110528.544000", "110528.547000", "110528.550000", "110528.553000", "110528.556000", "110528.559000", "110528.561000", "110528.565000", "110528.567000", "110528.570000", "110608.493000", "110608.496000", "110608.499000", "110608.502000", "110608.505000", "110608.508000", "110608.511000", "110608.514000", "110608.517000", "110608.520000", "110608.523000", "110608.526000", "110608.529000", "110608.532000", "110608.535000", "110608.538000", "110608.541000", "110608.544000", "110608.547000", "110608.550000", "110608.553000", "110608.556000", "110608.558000", "110608.562000", "110608.564000", "110608.567000", "110608.570000", "110648.492000", "110648.495000", "110648.498000", "110648.501000", "110648.504000", "110648.507000", "110648.510000", "110648.513000", "110648.516000", "110648.519000", "110648.522000", "110648.525000", "110648.528000", "110648.531000", "110648.534000", "110648.537000", "110648.540000", "110648.543000", "110648.546000", "110648.549000", "110648.552000", "110648.555000", "110648.558000", "110648.560000", "110648.563000", "110648.566000", "110648.569000", "110726.892000", "110726.895000", "110726.898000", "110726.901000", "110726.904000", "110726.913000", "110726.916000", "110726.919000", "110726.922000", "110726.924000", "110726.927000", "110726.931000", "110726.933000", "110726.936000", "110726.939000", "110726.942000", "110726.945000", "110726.948000", "110726.951000", "110726.954000", "110726.957000", "110726.960000", "110726.963000", "110726.966000", "110726.969000", "110726.972000"],
