{
  "AcquisitionMatrixPE": 104,
  "AcquisitionNumber": 1,
  "AcquisitionTime": "15:28:46.132500",
  "BandwidthPerPixelPhaseEncode": 17.17,
  "BaseResolution": 104,
  "BodyPartExamined": "BRAIN",
  "CoilString": "HC1-7;NC1_2",
  "ConsistencyInfo": "N4_VE11C_LATEST_20160120",
  "ConversionSoftware": "dcm2niix",
  "ConversionSoftwareVersion": "v1.0.20200427",
  "DerivedVendorReportedEchoSpacing": 0.000560011,
  "DeviceSerialNumber": "167006",
  "DwellTime": 2.1e-06,
  "EchoTime": 0.037,
  "EchoTrainLength": 104,
  "EffectiveEchoSpacing": 0.000560011,
  "FlipAngle": 52,
  "ImageComments": "Unaliased_MB4_PE3_LB",
  "ImageOrientationPatientDICOM": [0.996612, 0.0746355, 0.0345695, -0.0627015, 0.961381, -0.267983],
  "ImageType": [
    "ORIGINAL",
    "PRIMARY",
    "M",
    "MB",
    "ND",
    "MOSAIC"
],
  "ImagingFrequency": 123.259,
  "InPlanePhaseEncodingDirectionDICOM": "COL",
  "InstitutionAddress": "Chemin_Queen-Mary_4565_Montreal_District_CA_H3W_1W5",
  "InstitutionName": "IUGM",
  "InstitutionalDepartmentName": "Department",
  "MRAcquisitionType": "2D",
  "MagneticFieldStrength": 3,
  "Manufacturer": "Siemens",
  "ManufacturersModelName": "Prisma_fit",
  "Modality": "MR",
  "MultibandAccelerationFactor": 4,
  "PartialFourier": 1,
  "PatientPosition": "HFS",
  "PercentPhaseFOV": 100,
  "PercentSampling": 100,
  "PhaseEncodingDirection": "j",
  "PhaseEncodingSteps": 104,
  "PhaseResolution": 1,
  "PixelBandwidth": 2290,
  "ProcedureStepDescription": "games_shinobi",
  "ProtocolName": "func_task-shinobi_run-2",
  "PulseSequenceDetails": "%CustomerSeq%_cmrr_mbep2d_bold",
  "ReceiveCoilActiveElements": "HC1-7;NC1,2",
  "ReceiveCoilName": "HeadNeck_64",
  "ReconMatrixPE": 104,
  "RepetitionTime": 1.49,
  "SAR": 0.0366201,
  "ScanOptions": "FS",
  "ScanningSequence": "EP",
  "SequenceName": "epfid2d1_104",
  "SequenceVariant": "SK_SS",
  "SeriesDescription": "func_task-shinobi_run-2",
  "SeriesNumber": 11,
  "ShimSetting": [639, -7214, -8832, 694, 119, -16, 64, -22],
  "SliceThickness": 2,
  "SliceTiming": [0, 0.7825, 0.0975, 0.88, 0.195, 0.98, 0.2925, 1.0775, 0.39, 1.175, 0.49, 1.2725, 0.5875, 1.37, 0.685, 0, 0.7825, 0.0975, 0.88, 0.195, 0.98, 0.2925, 1.0775, 0.39, 1.175, 0.49, 1.2725, 0.5875, 1.37, 0.685, 0, 0.7825, 0.0975, 0.88, 0.195, 0.98, 0.2925, 1.0775, 0.39, 1.175, 0.49, 1.2725, 0.5875, 1.37, 0.685, 0, 0.7825, 0.0975, 0.88, 0.195, 0.98, 0.2925, 1.0775, 0.39, 1.175, 0.49, 1.2725, 0.5875, 1.37, 0.685],
  "SoftwareVersions": "syngo_MR_E11",
  "SpacingBetweenSlices": 2,
  "StationName": "MRC35049",
  "TaskName": "shinobi",
  "TotalReadoutTime": 0.0576811,
  "TxRefAmp": 244.469,
  "WipMemBlock": "a438a8a1-c522-49f4-8dde-0f12bc7b7bb2||Sequence: R016 ve11c/master r/e634e98; Dec 19 2017 11:00:25 by eja",
  "dcmmeta_affine": [
    [-1.9932230710983276, -0.12540309131145477, 0.10647104680538177, 110.1131820678711],
    [-0.1492709219455719, 1.9227622747421265, -0.5298143625259399, -57.49211502075195],
    [0.06913907825946808, 0.535965621471405, 1.9256064891815186, -57.1226692199707],
    [0.0, 0.0, 0.0, 1.0]
],
  "dcmmeta_reorient_transform": [
    [0.0, -1.0, 0.0, 103.0],
    [1.0, 0.0, 0.0, 0.0],
    [0.0, 0.0, 1.0, 0.0],
    [0.0, 0.0, 0.0, 1.0]
],
  "dcmmeta_shape": [104, 104, 60, 486],
  "dcmmeta_slice_dim": 2,
  "dcmmeta_version": 0.6,
  "global": {
    "const": {
      "AcquisitionMatrix": [104, 0, 0, 104],
      "AngioFlag": "N",
      "BitsAllocated": 16,
      "BitsStored": 16,
      "BodyPartExamined": "BRAIN",
      "Columns": 832,
      "EchoNumbers": 1,
      "EchoTime": 37.0,
      "EchoTrainLength": 104,
      "FlipAngle": 52.0,
      "HighBit": 15,
      "ImageOrientationPatient": [0.99661150645587, 0.07463546176795, 0.03456953928612, -0.0627015478402, 0.96138115582726, -0.267982814969],
      "ImagePositionPatient": [-777.08311182441, -894.77250079649, 168.00665574716],
      "ImageType": [
        "ORIGINAL",
        "PRIMARY",
        "M",
        "MB",
        "ND",
        "MOSAIC"
],
      "ImagedNucleus": "1H",
      "ImagingFrequency": 123.259066,
      "InPlanePhaseEncodingDirection": "COL",
      "MRAcquisitionType": "2D",
      "MagneticFieldStrength": 3.0,
      "Manufacturer": "SIEMENS",
      "ManufacturerModelName": "Prisma_fit",
      "Modality": "MR",
      "NumberOfAverages": 1.0,
      "NumberOfPhaseEncodingSteps": 104,
      "PercentPhaseFieldOfView": 100.0,
      "PercentSampling": 100.0,
      "PerformedProcedureStepStartTime": "151227.116000",
      "PhotometricInterpretation": "MONOCHROME2",
      "PixelBandwidth": 2290.0,
      "PixelRepresentation": 0,
      "PixelSpacing": [2.0, 2.0],
      "ProtocolName": "func_task-shinobi_run-2",
      "RepetitionTime": 1490.0,
      "Rows": 832,
      "SAR": 0.03662007203589,
      "SamplesPerPixel": 1,
      "ScanOptions": "FS",
      "ScanningSequence": "EP",
      "SequenceName": "epfid2d1_104",
      "SequenceVariant": [
        "SK",
        "SS"
],
      "SeriesDescription": "func_task-shinobi_run-2",
      "SeriesNumber": 11,
      "SeriesTime": "153017.538000",
      "SliceLocation": -33.905885206224,
      "SliceThickness": 2.0,
      "SmallestImagePixelValue": 0,
      "SoftwareVersions": "syngo MR E11",
      "SpacingBetweenSlices": 1.9999999551134,
      "SpecificCharacterSet": "ISO_IR 100",
      "StudyID": "2",
      "StudyTime": "151227.067000",
      "TransmitCoilName": "Body",
      "VariableFlipAngleFlag": "N",
      "WindowCenterWidthExplanation": "Algo1",
      "dBdt": 0.0},
    "slices": {}
  },
  "time": {
    "samples": {
      "AcquisitionNumber": [1, 2, 3, 4, 5, 6, 7, 8, 9, 10, 11, 12, 13, 14, 15, 16, 17, 18, 19, 20, 21, 22, 23, 24, 25, 26, 27, 28, 29, 30, 31, 32, 33, 34, 35, 36, 37, 38, 39, 40, 41, 42, 43, 44, 45, 46, 47, 48, 49, 50, 51, 52, 53, 54, 55, 56, 57, 58, 59, 60, 61, 62, 63, 64, 65, 66, 67, 68, 69, 70, 71, 72, 73, 74, 75, 76, 77, 78, 79, 80, 81, 82, 83, 84, 85, 86, 87, 88, 89, 90, 91, 92, 93, 94, 95, 96, 97, 98, 99, 100, 101, 102, 103, 104, 105, 106, 107, 108, 109, 110, 111, 112, 113, 114, 115, 116, 117, 118, 119, 120, 121, 122, 123, 124, 125, 126, 127, 128, 129, 130, 131, 132, 133, 134, 135, 136, 137, 138, 139, 140, 141, 142, 143, 144, 145, 146, 147, 148, 149, 150, 151, 152, 153, 154, 155, 156, 157, 158, 159, 160, 161, 162, 163, 164, 165, 166, 167, 168, 169, 170, 171, 172, 173, 174, 175, 176, 177, 178, 179, 180, 181, 182, 183, 184, 185, 186, 187, 188, 189, 190, 191, 192, 193, 194, 195, 196, 197, 198, 199, 200, 201, 202, 203, 204, 205, 206, 207, 208, 209, 210, 211, 212, 213, 214, 215, 216, 217, 218, 219, 220, 221, 222, 223, 224, 225, 226, 227, 228, 229, 230, 231, 232, 233, 234, 235, 236, 237, 238, 239, 240, 241, 242, 243, 244, 245, 246, 247, 248, 249, 250, 251, 252, 253, 254, 255, 256, 257, 258, 259, 260, 261, 262, 263, 264, 265, 266, 267, 268, 269, 270, 271, 272, 273, 274, 275, 276, 277, 278, 279, 280, 281, 282, 283, 284, 285, 286, 287, 288, 289, 290, 291, 292, 293, 294, 295, 296, 297, 298, 299, 300, 301, 302, 303, 304, 305, 306, 307, 308, 309, 310, 311, 312, 313, 314, 315, 316, 317, 318, 319, 320, 321, 322, 323, 324, 325, 326, 327, 328, 329, 330, 331, 332, 333, 334, 335, 336, 337, 338, 339, 340, 341, 342, 343, 344, 345, 346, 347, 348, 349, 350, 351, 352, 353, 354, 355, 356, 357, 358, 359, 360, 361, 362, 363, 364, 365, 366, 367, 368, 369, 370, 371, 372, 373, 374, 375, 376, 377, 378, 379, 380, 381, 382, 383, 384, 385, 386, 387, 388, 389, 390, 391, 392, 393, 394, 395, 396, 397, 398, 399, 400, 401, 402, 403, 404, 405, 406, 407, 408, 409, 410, 411, 412, 413, 414, 415, 416, 417, 418, 419, 420, 421, 422, 423, 424, 425, 426, 427, 428, 429, 430, 431, 432, 433, 434, 435, 436, 437, 438, 439, 440, 441, 442, 443, 444, 445, 446, 447, 448, 449, 450, 451, 452, 453, 454, 455, 456, 457, 458, 459, 460, 461, 462, 463, 464, 465, 466, 467, 468, 469, 470, 471, 472, 473, 474, 475, 476, 477, 478, 479, 480, 481, 482, 483, 484, 485, 486],
      "AcquisitionTime": ["152846.132500", "152847.622500", "152849.112500", "152850.602500", "152852.092500", "152853.582500", "152855.072500", "152856.562500", "152858.052500", "152859.542500", "152901.032500", "152902.522500", "152904.012500", "152905.502500", "152906.992500", "152908.482500", "152909.972500", "152911.462500", "152912.952500", "152914.442500", "152915.932500", "152917.422500", "152918.912500", "152920.402500", "152921.892500", "152923.382500", "152924.872500", "152926.362500", "152927.852500", "152929.342500", "152930.832500", "152932.322500", "152933.812500", "152935.302500", "152936.792500", "152938.282500", "152939.772500", "152941.262500", "152942.752500", "152944.242500", "152945.732500", "152947.222500", "152948.712500", "152950.202500", "152951.692500", "152953.182500", "152954.672500", "152956.162500", "152957.652500", "152959.142500", "153000.632500", "153002.122500", "153003.612500", "153005.102500", "153006.592500", "153008.082500", "153009.572500", "153011.062500", "153012.552500", "153014.042500", "153015.532500", "153017.022500", "153018.512500", "153020.002500", "153021.492500", "153022.982500", "153024.472500", "153025.962500", "153027.452500", "153028.942500", "153030.432500", "153031.922500", "153033.412500", "153034.902500", "153036.392500", "153037.882500", "153039.372500", "153040.862500", "153042.352500", "153043.842500", "153045.332500", "153046.822500", "153048.312500", "153049.802500", "153051.292500", "153052.782500", "153054.272500", "153055.762500", "153057.252500", "153058.742500", "153100.232500", "153101.722500", "153103.212500", "153104.702500", "153106.192500", "153107.682500", "153109.172500", "153110.662500", "153112.152500", "153113.642500", "153115.132500", "153116.622500", "153118.112500", "153119.602500", "153121.092500", "153122.582500", "153124.072500", "153125.562500", "153127.052500", "153128.542500", "153130.032500", "153131.522500", "153133.012500", "153134.502500", "153135.992500", "153137.482500", "153138.972500", "153140.462500", "153141.952500", "153143.442500", "153144.932500", "153146.422500", "153147.912500", "153149.402500", "153150.892500", "153152.382500", "153153.872500", "153155.362500", "153156.852500", "153158.342500", "153159.832500", "153201.322500", "153202.812500", "153204.302500", "153205.792500", "153207.282500", "153208.772500", "153210.262500", "153211.752500", "153213.242500", "153214.732500", "153216.222500", "153217.712500", "153219.202500", "153220.692500", "153222.182500", "153223.672500", "153225.162500", "153226.652500", "153228.142500", "153229.632500", "153231.122500", "153232.612500", "153234.102500", "153235.592500", "153237.082500", "153238.572500", "153240.062500", "153241.552500", "153243.042500", "153244.532500", "153246.022500", "153247.512500", "153249.002500", "153250.492500", "153251.982500", "153253.472500", "153254.962500", "153256.452500", "153257.942500", "153259.432500", "153300.922500", "153302.412500", "153303.902500", "153305.392500", "153306.882500", "153308.372500", "153309.862500", "153311.352500", "153312.842500", "153314.332500", "153315.822500", "153317.312500", "153318.802500", "153320.292500", "153321.782500", "153323.272500", "153324.762500", "153326.252500", "153327.742500", "153329.232500", "153330.722500", "153332.212500", "153333.702500", "153335.192500", "153336.682500", "153338.172500", "153339.662500", "153341.152500", "153342.642500", "153344.132500", "153345.622500", "153347.112500", "153348.602500", "153350.092500", "153351.582500", "153353.072500", "153354.562500", "153356.052500", "153357.542500", "153359.032500", "153400.522500", "153402.012500", "153403.502500", "153404.992500", "153406.482500", "153407.972500", "153409.462500", "153410.952500", "153412.442500", "153413.932500", "153415.422500", "153416.912500", "153418.402500", "153419.892500", "153421.382500", "153422.872500", "153424.362500", "153425.852500", "153427.342500", "153428.832500", "153430.322500", "153431.812500", "153433.302500", "153434.792500", "153436.282500", "153437.772500", "153439.262500", "153440.752500", "153442.242500", "153443.732500", "153445.222500", "153446.712500", "153448.202500", "153449.692500", "153451.182500", "153452.672500", "153454.162500", "153455.652500", "153457.142500", "153458.632500", "153500.122500", "153501.612500", "153503.102500", "153504.592500", "153506.082500", "153507.572500", "153509.062500", "153510.552500", "153512.042500", "153513.532500", "153515.022500", "153516.512500", "153518.002500", "153519.492500", "153520.982500", "153522.472500", "153523.962500", "153525.452500", "153526.942500", "153528.432500", "153529.922500", "153531.412500", "153532.902500", "153534.392500", "153535.882500", "153537.372500", "153538.862500", "153540.352500", "153541.842500", "153543.332500", "153544.822500", "153546.312500", "153547.802500", "153549.292500", "153550.782500", "153552.272500", "153553.762500", "153555.252500", "153556.742500", "153558.232500", "153559.722500", "153601.212500", "153602.702500", "153604.192500", "153605.682500", "153607.172500", "153608.662500", "153610.152500", "153611.642500", "153613.132500", "153614.622500", "153616.112500", "153617.602500", "153619.092500", "153620.582500", "153622.072500", "153623.562500", "153625.052500", "153626.542500", "153628.032500", "153629.522500", "153631.012500", "153632.502500", "153633.992500", "153635.482500", "153636.972500", "153638.462500", "153639.952500", "153641.442500", "153642.932500", "153644.422500", "153645.912500", "153647.402500", "153648.892500", "153650.382500", "153651.872500", "153653.362500", "153654.852500", "153656.342500", "153657.832500", "153659.322500", "153700.812500", "153702.302500", "153703.792500", "153705.282500", "153706.772500", "153708.262500", "153709.752500", "153711.242500", "153712.732500", "153714.222500", "153715.712500", "153717.202500", "153718.692500", "153720.182500", "153721.672500", "153723.162500", "153724.652500", "153726.142500", "153727.632500", "153729.122500", "153730.612500", "153732.102500", "153733.592500", "153735.082500", "153736.572500", "153738.062500", "153739.552500", "153741.042500", "153742.532500", "153744.022500", "153745.512500", "153747.002500", "153748.492500", "153749.982500", "153751.472500", "153752.962500", "153754.452500", "153755.942500", "153757.432500", "153758.922500", "153800.412500", "153801.902500", "153803.392500", "153804.882500", "153806.372500", "153807.862500", "153809.352500", "153810.842500", "153812.332500", "153813.822500", "153815.312500", "153816.802500", "153818.292500", "153819.782500", "153821.272500", "153822.762500", "153824.252500", "153825.742500", "153827.232500", "153828.722500", "153830.212500", "153831.702500", "153833.192500", "153834.682500", "153836.172500", "153837.662500", "153839.152500", "153840.642500", "153842.132500", "153843.622500", "153845.112500", "153846.602500", "153848.092500", "153849.582500", "153851.072500", "153852.562500", "153854.052500", "153855.542500", "153857.032500", "153858.522500", "153900.012500", "153901.502500", "153902.992500", "153904.482500", "153905.972500", "153907.462500", "153908.952500", "153910.442500", "153911.932500", "153913.422500", "153914.912500", "153916.402500", "153917.892500", "153919.382500", "153920.872500", "153922.362500", "153923.852500", "153925.342500", "153926.832500", "153928.322500", "153929.812500", "153931.302500", "153932.792500", "153934.282500", "153935.772500", "153937.262500", "153938.752500", "153940.242500", "153941.732500", "153943.222500", "153944.712500", "153946.202500", "153947.692500", "153949.182500", "153950.672500", "153952.162500", "153953.652500", "153955.142500", "153956.632500", "153958.122500", "153959.612500", "154001.102500", "154002.592500", "154004.082500", "154005.572500", "154007.062500", "154008.552500", "154010.042500", "154011.532500", "154013.022500", "154014.512500", "154016.002500", "154017.492500", "154018.982500", "154020.472500", "154021.962500", "154023.452500", "154024.942500", "154026.432500", "154027.922500", "154029.412500", "154030.902500", "154032.392500", "154033.882500", "154035.372500", "154036.862500", "154038.352500", "154039.842500", "154041.332500", "154042.822500", "154044.312500", "154045.802500", "154047.292500", "154048.782500"],
      "ContentTime": ["153017.541000", "153017.545000", "153017.548000", "153017.551000", "153017.560000", "153017.562000", "153017.565000", "153017.569000", "153017.572000", "153017.574000", "153017.583000", "153017.586000", "153017.589000", "153017.592000", "153017.595000", "153017.598000", "153017.601000", "153017.604000", "153017.607000", "153017.610000", "153017.613000", "153017.616000", "153017.619000", "153017.622000", "153017.625000", "153017.628000", "153017.631000", "153017.634000", "153017.637000", "153017.640000", "153017.643000", "153017.646000", "153017.649000", "153017.652000", "153017.655000", "153017.658000", "153017.661000", "153017.664000", "153017.667000", "153037.509000", "153037.512000", "153037.515000", "153037.518000", "153037.521000", "153037.524000", "153037.527000", "153037.539000", "153037.542000", "153037.545000", "153037.548000", "153037.551000", "153037.554000", "153037.568000", "153037.571000", "153037.580000", "153037.583000", "153037.586000", "153037.589000", "153037.592000", "153057.509000", "153057.512000", "153057.515000", "153057.518000", "153057.521000", "153057.524000", "153057.527000", "153057.530000", "153057.533000", "153057.536000", "153057.539000", "153057.542000", "153057.545000", "153057.548000", "153057.551000", "153057.554000", "153057.557000", "153057.560000", "153057.563000", "153057.566000", "153117.509000", "153117.512000", "153117.515000", "153117.518000", "153117.521000", "153117.524000", "153117.527000", "153117.530000", "153117.533000", "153117.536000", "153117.539000", "153117.542000", "153117.545000", "153117.548000", "153117.551000", "153117.554000", "153117.557000", "153117.560000", "153117.563000", "153117.566000", "153117.569000", "153157.509000", "153157.512000", "153157.515000", "153157.518000", "153157.521000", "153157.524000", "153157.527000", "153157.530000", "153157.533000", "153157.536000", "153157.539000", "153157.542000", "153157.545000", "153157.548000", "153157.551000", "153157.554000", "153157.557000", "153157.560000", "153157.563000", "153157.566000", "153157.569000", "153157.572000", "153157.575000", "153157.578000", "153157.581000", "153157.584000", "153157.587000", "153157.590000", "153237.509000", "153237.512000", "153237.515000", "153237.518000", "153237.521000", "153237.524000", "153237.527000", "153237.530000", "153237.533000", "153237.536000", "153237.539000", "153237.542000", "153237.545000", "153237.548000", "153237.551000", "153237.554000", "153237.557000", "153237.560000", "153237.563000", "153237.566000", "153237.569000", "153237.572000", "153237.575000", "153237.578000", "153237.581000", "153237.584000", "153237.587000", "153317.509000", "153317.512000", "153317.515000", "153317.518000", "153317.521000", "153317.524000", "153317.527000", "153317.530000", "153317.533000", "153317.536000", "153317.539000", "153317.542000", "153317.545000", "153317.548000", "153317.551000", "153317.554000", "153317.557000", "153317.560000", "153317.563000", "153317.567000", "153317.570000", "153317.572000", "153317.575000", "153317.578000", "153317.581000", "153317.584000", "153357.509000", "153357.512000", "153357.515000", "153357.518000", "153357.521000", "153357.524000", "153357.527000", "153357.530000", "153357.533000", "153357.536000", "153357.539000", "153357.542000", "153357.545000", "153357.548000", "153357.551000", "153357.554000", "153357.557000", "153357.560000", "153357.563000", "153357.566000", "153357.569000", "153357.572000", "153357.575000", "153357.578000", "153357.581000", "153357.593000", "153357.596000", "153437.509000", "153437.512000", "153437.515000", "153437.518000", "153437.521000", "153437.525000", "153437.528000", "153437.531000", "153437.534000", "153437.537000", "153437.540000", "153437.543000", "153437.546000", "153437.549000", "153437.552000", "153437.555000", "153437.558000", "153437.561000", "153437.564000", "153437.567000", "153437.570000", "153437.573000", "153437.576000", "153437.579000", "153437.582000", "153437.585000", "153437.588000", "153517.509000", "153517.512000", "153517.515000", "153517.518000", "153517.521000", "153517.533000", "153517.536000", "153517.539000", "153517.542000", "153517.545000", "153517.548000", "153517.551000", "153517.554000", "153517.557000", "153517.560000", "153517.563000", "153517.566000", "153517.569000", "153517.572000", "153517.575000", "153517.578000", "153517.581000", "153517.584000", "153517.587000", "153517.590000", "153517.593000", "153517.596000", "153557.509000", "153557.512000", "153557.515000", "153557.518000", "153557.521000", "153557.524000", "153557.527000", "153557.530000", "153557.533000", "153557.536000", "153557.539000", "153557.542000", "153557.545000", "153557.548000", "153557.551000", "153557.554000", "153557.557000", "153557.560000", "153557.563000", "153557.566000", "153557.569000", "153557.572000", "153557.575000", "153557.578000", "153557.581000", "153557.584000", "153557.587000", "153637.509000", "153637.512000", "153637.515000", "153637.518000", "153637.521000", "153637.524000", "153637.527000", "153637.530000", "153637.533000", "153637.536000", "153637.539000", "153637.542000", "153637.545000", "153637.548000", "153637.551000", "153637.554000", "153637.557000", "153637.560000", "153637.563000", "153637.566000", "153637.569000", "153637.572000", "153637.575000", "153637.578000", "153637.581000", "153637.584000", "153637.587000", "153717.509000", "153717.512000", "153717.515000", "153717.518000", "153717.521000", "153717.525000", "153717.528000", "153717.531000", "153717.535000", "153717.538000", "153717.541000", "153717.544000", "153717.547000", "153717.550000", "153717.553000", "153717.556000", "153717.559000", "153717.562000", "153717.565000", "153717.568000", "153717.571000", "153717.574000", "153717.577000", "153717.580000", "153717.583000", "153717.586000", "153757.509000", "153757.512000", "153757.515000", "153757.518000", "153757.521000", "153757.524000", "153757.527000", "153757.530000", "153757.533000", "153757.536000", "153757.539000", "153757.542000", "153757.545000", "153757.548000", "153757.551000", "153757.554000", "153757.557000", "153757.560000", "153757.563000", "153757.566000", "153757.569000", "153757.572000", "153757.575000", "153757.578000", "153757.581000", "153757.584000", "153757.587000", "153837.509000", "153837.512000", "153837.515000", "153837.518000", "153837.521000", "153837.524000", "153837.527000", "153837.530000", "153837.533000", "153837.536000", "153837.539000", "153837.542000", "153837.545000", "153837.548000", "153837.551000", "153837.554000", "153837.557000", "153837.560000", "153837.563000", "153837.566000", "153837.569000", "153837.572000", "153837.575000", "153837.578000", "153837.581000", "153837.584000", "153837.587000", "153917.509000", "153917.512000", "153917.515000", "153917.518000", "153917.521000", "153917.524000", "153917.527000", "153917.530000", "153917.533000", "153917.536000", "153917.539000", "153917.542000", "153917.545000", "153917.548000", "153917.551000", "153917.554000", "153917.557000", "153917.560000", "153917.563000", "153917.566000", "153917.569000", "153917.572000", "153917.575000", "153917.578000", "153917.581000", "153917.584000", "153917.588000", "153957.509000", "153957.512000", "153957.515000", "153957.518000", "153957.521000", "153957.524000", "153957.545000", "153957.548000", "153957.551000", "153957.554000", "153957.557000", "153957.560000", "153957.563000", "153957.566000", "153957.569000", "153957.572000", "153957.575000", "153957.578000", "153957.581000", "153957.584000", "153957.587000", "153957.590000", "153957.593000", "153957.596000", "153957.599000", "153957.602000", "153957.605000", "154017.509000", "154017.512000", "154017.515000", "154017.518000", "154017.521000", "154017.524000", "154017.527000", "154017.530000", "154017.533000", "154017.536000", "154017.539000", "154017.542000", "154017.545000", "154051.894000", "154051.897000", "154051.901000", "154051.904000", "154051.906000", "154051.910000", "154051.913000", "154051.916000", "154051.919000", "154051.922000", "154051.925000", "154051.928000", "154051.931000", "154051.934000", "154051.937000", "154051.940000", "154051.943000", "154051.946000", "154051.949000", "154051.952000", "154051.955000", "154051.958000", "154051.961000"],
