{
  "AcquisitionMatrixPE": 104,
  "AcquisitionNumber": 1,
  "AcquisitionTime": "15:42:8.420000",
  "BandwidthPerPixelPhaseEncode": 17.17,
  "BaseResolution": 104,
  "BodyPartExamined": "BRAIN",
  "CoilString": "HC1-7;NC1_2",
  "ConsistencyInfo": "N4_VE11C_LATEST_20160120",
  "ConversionSoftware": "dcm2niix",
  "ConversionSoftwareVersion": "v1.0.20200427",
  "DerivedVendorReportedEchoSpacing": 0.000560011,
  "DeviceSerialNumber": "167006",
  "DwellTime": 2.1e-06,
  "EchoTime": 0.037,
  "EchoTrainLength": 104,
  "EffectiveEchoSpacing": 0.000560011,
  "FlipAngle": 52,
  "ImageComments": "Unaliased_MB4_PE3_LB",
  "ImageOrientationPatientDICOM": [0.996612, 0.0746355, 0.0345695, -0.0627015, 0.961381, -0.267983],
  "ImageType": [
    "ORIGINAL",
    "PRIMARY",
    "M",
    "MB",
    "ND",
    "MOSAIC"
],
  "ImagingFrequency": 123.259,
  "InPlanePhaseEncodingDirectionDICOM": "COL",
  "InstitutionAddress": "Chemin_Queen-Mary_4565_Montreal_District_CA_H3W_1W5",
  "InstitutionName": "IUGM",
  "InstitutionalDepartmentName": "Department",
  "MRAcquisitionType": "2D",
  "MagneticFieldStrength": 3,
  "Manufacturer": "Siemens",
  "ManufacturersModelName": "Prisma_fit",
  "Modality": "MR",
  "MultibandAccelerationFactor": 4,
  "PartialFourier": 1,
  "PatientPosition": "HFS",
  "PercentPhaseFOV": 100,
  "PercentSampling": 100,
  "PhaseEncodingDirection": "j",
  "PhaseEncodingSteps": 104,
  "PhaseResolution": 1,
  "PixelBandwidth": 2290,
  "ProcedureStepDescription": "games_shinobi",
  "ProtocolName": "func_task-shinobi_run-3",
  "PulseSequenceDetails": "%CustomerSeq%_cmrr_mbep2d_bold",
  "ReceiveCoilActiveElements": "HC1-7;NC1,2",
  "ReceiveCoilName": "HeadNeck_64",
  "ReconMatrixPE": 104,
  "RepetitionTime": 1.49,
  "SAR": 0.0366201,
  "ScanOptions": "FS",
  "ScanningSequence": "EP",
  "SequenceName": "epfid2d1_104",
  "SequenceVariant": "SK_SS",
  "SeriesDescription": "func_task-shinobi_run-3",
  "SeriesNumber": 13,
  "ShimSetting": [639, -7214, -8832, 694, 119, -16, 64, -22],
  "SliceThickness": 2,
  "SliceTiming": [0, 0.785, 0.0975, 0.8825, 0.195, 0.98, 0.295, 1.0775, 0.3925, 1.175, 0.49, 1.275, 0.5875, 1.3725, 0.685, 0, 0.785, 0.0975, 0.8825, 0.195, 0.98, 0.295, 1.0775, 0.3925, 1.175, 0.49, 1.275, 0.5875, 1.3725, 0.685, 0, 0.785, 0.0975, 0.8825, 0.195, 0.98, 0.295, 1.0775, 0.3925, 1.175, 0.49, 1.275, 0.5875, 1.3725, 0.685, 0, 0.785, 0.0975, 0.8825, 0.195, 0.98, 0.295, 1.0775, 0.3925, 1.175, 0.49, 1.275, 0.5875, 1.3725, 0.685],
  "SoftwareVersions": "syngo_MR_E11",
  "SpacingBetweenSlices": 2,
  "StationName": "MRC35049",
  "TaskName": "shinobi",
  "TotalReadoutTime": 0.0576811,
  "TxRefAmp": 244.469,
  "WipMemBlock": "f9dd1372-6014-4895-87f6-511f7700bfc9||Sequence: R016 ve11c/master r/e634e98; Dec 19 2017 11:00:25 by eja",
  "dcmmeta_affine": [
    [-1.9932230710983276, -0.12540309131145477, 0.10647104680538177, 110.1131820678711],
    [-0.1492709219455719, 1.9227622747421265, -0.5298143625259399, -57.49211502075195],
    [0.06913907825946808, 0.535965621471405, 1.9256064891815186, -57.1226692199707],
    [0.0, 0.0, 0.0, 1.0]
],
  "dcmmeta_reorient_transform": [
    [0.0, -1.0, 0.0, 103.0],
    [1.0, 0.0, 0.0, 0.0],
    [0.0, 0.0, 1.0, 0.0],
    [0.0, 0.0, 0.0, 1.0]
],
  "dcmmeta_shape": [104, 104, 60, 485],
  "dcmmeta_slice_dim": 2,
  "dcmmeta_version": 0.6,
  "global": {
    "const": {
      "AcquisitionMatrix": [104, 0, 0, 104],
      "AngioFlag": "N",
      "BitsAllocated": 16,
      "BitsStored": 16,
      "BodyPartExamined": "BRAIN",
      "Columns": 832,
      "EchoNumbers": 1,
      "EchoTime": 37.0,
      "EchoTrainLength": 104,
      "FlipAngle": 52.0,
      "HighBit": 15,
      "ImageOrientationPatient": [0.99661150645587, 0.07463546176795, 0.03456953928612, -0.0627015478402, 0.96138115582726, -0.267982814969],
      "ImagePositionPatient": [-777.08311182441, -894.77250079649, 168.00665574716],
      "ImageType": [
        "ORIGINAL",
        "PRIMARY",
        "M",
        "MB",
        "ND",
        "MOSAIC"
],
      "ImagedNucleus": "1H",
      "ImagingFrequency": 123.259073,
      "InPlanePhaseEncodingDirection": "COL",
      "MRAcquisitionType": "2D",
      "MagneticFieldStrength": 3.0,
      "Manufacturer": "SIEMENS",
      "ManufacturerModelName": "Prisma_fit",
      "Modality": "MR",
      "NumberOfAverages": 1.0,
      "NumberOfPhaseEncodingSteps": 104,
      "PercentPhaseFieldOfView": 100.0,
      "PercentSampling": 100.0,
      "PerformedProcedureStepStartTime": "151227.116000",
      "PhotometricInterpretation": "MONOCHROME2",
      "PixelBandwidth": 2290.0,
      "PixelRepresentation": 0,
      "PixelSpacing": [2.0, 2.0],
      "ProtocolName": "func_task-shinobi_run-3",
      "RepetitionTime": 1490.0,
      "Rows": 832,
      "SAR": 0.03662007203589,
      "SamplesPerPixel": 1,
      "ScanOptions": "FS",
      "ScanningSequence": "EP",
      "SequenceName": "epfid2d1_104",
      "SequenceVariant": [
        "SK",
        "SS"
],
      "SeriesDescription": "func_task-shinobi_run-3",
      "SeriesNumber": 13,
      "SeriesTime": "154341.469000",
      "SliceLocation": -33.905885206224,
      "SliceThickness": 2.0,
      "SmallestImagePixelValue": 0,
      "SoftwareVersions": "syngo MR E11",
      "SpacingBetweenSlices": 1.9999999551134,
      "SpecificCharacterSet": "ISO_IR 100",
      "StudyID": "2",
      "StudyTime": "151227.067000",
      "TransmitCoilName": "Body",
      "VariableFlipAngleFlag": "N",
      "WindowCenterWidthExplanation": "Algo1",
      "dBdt": 0.0},
    "slices": {}
  },
  "time": {
    "samples": {
      "AcquisitionNumber": [1, 2, 3, 4, 5, 6, 7, 8, 9, 10, 11, 12, 13, 14, 15, 16, 17, 18, 19, 20, 21, 22, 23, 24, 25, 26, 27, 28, 29, 30, 31, 32, 33, 34, 35, 36, 37, 38, 39, 40, 41, 42, 43, 44, 45, 46, 47, 48, 49, 50, 51, 52, 53, 54, 55, 56, 57, 58, 59, 60, 61, 62, 63, 64, 65, 66, 67, 68, 69, 70, 71, 72, 73, 74, 75, 76, 77, 78, 79, 80, 81, 82, 83, 84, 85, 86, 87, 88, 89, 90, 91, 92, 93, 94, 95, 96, 97, 98, 99, 100, 101, 102, 103, 104, 105, 106, 107, 108, 109, 110, 111, 112, 113, 114, 115, 116, 117, 118, 119, 120, 121, 122, 123, 124, 125, 126, 127, 128, 129, 130, 131, 132, 133, 134, 135, 136, 137, 138, 139, 140, 141, 142, 143, 144, 145, 146, 147, 148, 149, 150, 151, 152, 153, 154, 155, 156, 157, 158, 159, 160, 161, 162, 163, 164, 165, 166, 167, 168, 169, 170, 171, 172, 173, 174, 175, 176, 177, 178, 179, 180, 181, 182, 183, 184, 185, 186, 187, 188, 189, 190, 191, 192, 193, 194, 195, 196, 197, 198, 199, 200, 201, 202, 203, 204, 205, 206, 207, 208, 209, 210, 211, 212, 213, 214, 215, 216, 217, 218, 219, 220, 221, 222, 223, 224, 225, 226, 227, 228, 229, 230, 231, 232, 233, 234, 235, 236, 237, 238, 239, 240, 241, 242, 243, 244, 245, 246, 247, 248, 249, 250, 251, 252, 253, 254, 255, 256, 257, 258, 259, 260, 261, 262, 263, 264, 265, 266, 267, 268, 269, 270, 271, 272, 273, 274, 275, 276, 277, 278, 279, 280, 281, 282, 283, 284, 285, 286, 287, 288, 289, 290, 291, 292, 293, 294, 295, 296, 297, 298, 299, 300, 301, 302, 303, 304, 305, 306, 307, 308, 309, 310, 311, 312, 313, 314, 315, 316, 317, 318, 319, 320, 321, 322, 323, 324, 325, 326, 327, 328, 329, 330, 331, 332, 333, 334, 335, 336, 337, 338, 339, 340, 341, 342, 343, 344, 345, 346, 347, 348, 349, 350, 351, 352, 353, 354, 355, 356, 357, 358, 359, 360, 361, 362, 363, 364, 365, 366, 367, 368, 369, 370, 371, 372, 373, 374, 375, 376, 377, 378, 379, 380, 381, 382, 383, 384, 385, 386, 387, 388, 389, 390, 391, 392, 393, 394, 395, 396, 397, 398, 399, 400, 401, 402, 403, 404, 405, 406, 407, 408, 409, 410, 411, 412, 413, 414, 415, 416, 417, 418, 419, 420, 421, 422, 423, 424, 425, 426, 427, 428, 429, 430, 431, 432, 433, 434, 435, 436, 437, 438, 439, 440, 441, 442, 443, 444, 445, 446, 447, 448, 449, 450, 451, 452, 453, 454, 455, 456, 457, 458, 459, 460, 461, 462, 463, 464, 465, 466, 467, 468, 469, 470, 471, 472, 473, 474, 475, 476, 477, 478, 479, 480, 481, 482, 483, 484, 485],
      "AcquisitionTime": ["154208.420000", "154209.910000", "154211.400000", "154212.890000", "154214.380000", "154215.870000", "154217.360000", "154218.850000", "154220.340000", "154221.830000", "154223.320000", "154224.810000", "154226.300000", "154227.790000", "154229.280000", "154230.770000", "154232.260000", "154233.750000", "154235.240000", "154236.730000", "154238.220000", "154239.710000", "154241.200000", "154242.690000", "154244.180000", "154245.670000", "154247.160000", "154248.650000", "154250.140000", "154251.630000", "154253.120000", "154254.610000", "154256.100000", "154257.590000", "154259.080000", "154300.570000", "154302.060000", "154303.550000", "154305.040000", "154306.530000", "154308.020000", "154309.510000", "154311.000000", "154312.490000", "154313.980000", "154315.470000", "154316.960000", "154318.450000", "154319.940000", "154321.430000", "154322.920000", "154324.410000", "154325.900000", "154327.390000", "154328.880000", "154330.370000", "154331.860000", "154333.350000", "154334.840000", "154336.330000", "154337.820000", "154339.310000", "154340.800000", "154342.290000", "154343.780000", "154345.270000", "154346.760000", "154348.250000", "154349.740000", "154351.230000", "154352.720000", "154354.210000", "154355.700000", "154357.190000", "154358.680000", "154400.170000", "154401.660000", "154403.150000", "154404.640000", "154406.130000", "154407.620000", "154409.110000", "154410.600000", "154412.090000", "154413.580000", "154415.070000", "154416.560000", "154418.050000", "154419.540000", "154421.030000", "154422.520000", "154424.010000", "154425.500000", "154426.990000", "154428.480000", "154429.970000", "154431.460000", "154432.950000", "154434.440000", "154435.930000", "154437.420000", "154438.910000", "154440.400000", "154441.890000", "154443.380000", "154444.870000", "154446.360000", "154447.850000", "154449.340000", "154450.830000", "154452.320000", "154453.810000", "154455.300000", "154456.790000", "154458.280000", "154459.770000", "154501.260000", "154502.750000", "154504.240000", "154505.730000", "154507.220000", "154508.710000", "154510.200000", "154511.690000", "154513.180000", "154514.670000", "154516.160000", "154517.650000", "154519.140000", "154520.630000", "154522.120000", "154523.610000", "154525.100000", "154526.590000", "154528.080000", "154529.570000", "154531.060000", "154532.550000", "154534.040000", "154535.530000", "154537.020000", "154538.510000", "154540.000000", "154541.490000", "154542.980000", "154544.470000", "154545.960000", "154547.450000", "154548.940000", "154550.430000", "154551.920000", "154553.410000", "154554.900000", "154556.390000", "154557.880000", "154559.370000", "154600.860000", "154602.350000", "154603.840000", "154605.330000", "154606.820000", "154608.310000", "154609.800000", "154611.290000", "154612.780000", "154614.270000", "154615.760000", "154617.250000", "154618.740000", "154620.230000", "154621.720000", "154623.210000", "154624.700000", "154626.190000", "154627.680000", "154629.170000", "154630.660000", "154632.150000", "154633.640000", "154635.130000", "154636.620000", "154638.110000", "154639.600000", "154641.090000", "154642.580000", "154644.070000", "154645.560000", "154647.050000", "154648.540000", "154650.030000", "154651.520000", "154653.010000", "154654.500000", "154655.990000", "154657.480000", "154658.970000", "154700.460000", "154701.950000", "154703.440000", "154704.930000", "154706.420000", "154707.910000", "154709.400000", "154710.890000", "154712.380000", "154713.870000", "154715.360000", "154716.850000", "154718.340000", "154719.830000", "154721.320000", "154722.810000", "154724.300000", "154725.790000", "154727.280000", "154728.770000", "154730.260000", "154731.750000", "154733.240000", "154734.730000", "154736.220000", "154737.710000", "154739.200000", "154740.690000", "154742.180000", "154743.670000", "154745.160000", "154746.650000", "154748.140000", "154749.630000", "154751.120000", "154752.610000", "154754.100000", "154755.590000", "154757.080000", "154758.570000", "154800.060000", "154801.550000", "154803.040000", "154804.530000", "154806.020000", "154807.510000", "154809.000000", "154810.490000", "154811.980000", "154813.470000", "154814.960000", "154816.450000", "154817.940000", "154819.430000", "154820.920000", "154822.410000", "154823.900000", "154825.390000", "154826.880000", "154828.370000", "154829.860000", "154831.350000", "154832.840000", "154834.330000", "154835.820000", "154837.310000", "154838.800000", "154840.290000", "154841.780000", "154843.270000", "154844.760000", "154846.250000", "154847.740000", "154849.230000", "154850.720000", "154852.210000", "154853.700000", "154855.190000", "154856.680000", "154858.170000", "154859.660000", "154901.150000", "154902.640000", "154904.130000", "154905.620000", "154907.110000", "154908.600000", "154910.090000", "154911.580000", "154913.070000", "154914.560000", "154916.050000", "154917.540000", "154919.030000", "154920.520000", "154922.010000", "154923.500000", "154924.990000", "154926.480000", "154927.970000", "154929.460000", "154930.950000", "154932.440000", "154933.930000", "154935.420000", "154936.910000", "154938.400000", "154939.890000", "154941.380000", "154942.870000", "154944.360000", "154945.850000", "154947.340000", "154948.830000", "154950.320000", "154951.810000", "154953.300000", "154954.790000", "154956.280000", "154957.770000", "154959.260000", "155000.750000", "155002.240000", "155003.730000", "155005.220000", "155006.710000", "155008.200000", "155009.690000", "155011.180000", "155012.670000", "155014.160000", "155015.650000", "155017.140000", "155018.630000", "155020.120000", "155021.610000", "155023.100000", "155024.590000", "155026.080000", "155027.570000", "155029.060000", "155030.550000", "155032.040000", "155033.530000", "155035.020000", "155036.510000", "155038.000000", "155039.490000", "155040.980000", "155042.470000", "155043.960000", "155045.450000", "155046.940000", "155048.430000", "155049.920000", "155051.410000", "155052.900000", "155054.390000", "155055.880000", "155057.370000", "155058.860000", "155100.350000", "155101.840000", "155103.330000", "155104.820000", "155106.310000", "155107.800000", "155109.290000", "155110.780000", "155112.270000", "155113.760000", "155115.250000", "155116.740000", "155118.230000", "155119.720000", "155121.210000", "155122.700000", "155124.190000", "155125.680000", "155127.170000", "155128.660000", "155130.150000", "155131.640000", "155133.130000", "155134.620000", "155136.110000", "155137.600000", "155139.090000", "155140.580000", "155142.070000", "155143.560000", "155145.050000", "155146.540000", "155148.030000", "155149.520000", "155151.010000", "155152.500000", "155153.990000", "155155.480000", "155156.970000", "155158.460000", "155159.950000", "155201.440000", "155202.930000", "155204.420000", "155205.910000", "155207.400000", "155208.890000", "155210.380000", "155211.870000", "155213.360000", "155214.850000", "155216.340000", "155217.830000", "155219.320000", "155220.810000", "155222.300000", "155223.790000", "155225.280000", "155226.770000", "155228.260000", "155229.750000", "155231.240000", "155232.730000", "155234.220000", "155235.710000", "155237.200000", "155238.690000", "155240.180000", "155241.670000", "155243.160000", "155244.650000", "155246.140000", "155247.630000", "155249.120000", "155250.610000", "155252.100000", "155253.590000", "155255.080000", "155256.570000", "155258.060000", "155259.550000", "155301.040000", "155302.530000", "155304.020000", "155305.510000", "155307.000000", "155308.490000", "155309.980000", "155311.470000", "155312.960000", "155314.450000", "155315.940000", "155317.430000", "155318.920000", "155320.410000", "155321.900000", "155323.390000", "155324.880000", "155326.370000", "155327.860000", "155329.350000", "155330.840000", "155332.330000", "155333.820000", "155335.310000", "155336.800000", "155338.290000", "155339.780000", "155341.270000", "155342.760000", "155344.250000", "155345.740000", "155347.230000", "155348.720000", "155350.210000", "155351.700000", "155353.190000", "155354.680000", "155356.170000", "155357.660000", "155359.150000", "155400.640000", "155402.130000", "155403.620000", "155405.110000", "155406.600000", "155408.090000", "155409.580000"],
      "ContentTime": ["154341.472000", "154341.475000", "154341.483000", "154341.486000", "154341.489000", "154341.492000", "154341.495000", "154341.498000", "154341.501000", "154341.504000", "154341.507000", "154341.510000", "154341.513000", "154341.516000", "154341.519000", "154341.522000", "154341.525000", "154341.528000", "154341.536000", "154341.539000", "154341.542000", "154341.545000", "154341.548000", "154341.551000", "154341.554000", "154341.557000", "154341.560000", "154341.563000", "154341.566000", "154341.569000", "154341.572000", "154341.575000", "154341.578000", "154341.581000", "154341.584000", "154341.587000", "154341.590000", "154341.593000", "154341.596000", "154401.431000", "154401.434000", "154401.437000", "154401.440000", "154401.443000", "154401.446000", "154401.449000", "154401.452000", "154401.455000", "154401.458000", "154401.461000", "154401.467000", "154401.470000", "154401.473000", "154401.476000", "154401.479000", "154401.482000", "154401.485000", "154401.488000", "154401.491000", "154421.431000", "154421.434000", "154421.437000", "154421.440000", "154421.443000", "154421.446000", "154421.449000", "154421.452000", "154421.455000", "154421.458000", "154421.461000", "154421.464000", "154421.467000", "154421.470000", "154421.473000", "154421.476000", "154421.479000", "154421.482000", "154421.485000", "154421.488000", "154441.431000", "154441.434000", "154441.437000", "154441.440000", "154441.443000", "154441.446000", "154441.449000", "154441.452000", "154441.455000", "154441.458000", "154441.461000", "154441.464000", "154441.467000", "154441.470000", "154441.473000", "154441.476000", "154441.479000", "154441.482000", "154441.485000", "154441.488000", "154521.431000", "154521.434000", "154521.437000", "154521.440000", "154521.443000", "154521.446000", "154521.449000", "154521.452000", "154521.455000", "154521.458000", "154521.461000", "154521.464000", "154521.467000", "154521.470000", "154521.473000", "154521.476000", "154521.479000", "154521.482000", "154521.485000", "154521.488000", "154521.503000", "154521.506000", "154521.508000", "154521.512000", "154521.514000", "154521.517000", "154521.520000", "154521.523000", "154521.526000", "154521.529000", "154601.432000", "154601.435000", "154601.438000", "154601.441000", "154601.444000", "154601.447000", "154601.450000", "154601.453000", "154601.456000", "154601.459000", "154601.462000", "154601.465000", "154601.468000", "154601.471000", "154601.474000", "154601.477000", "154601.480000", "154601.483000", "154601.486000", "154601.489000", "154601.492000", "154601.495000", "154601.498000", "154601.501000", "154601.504000", "154601.507000", "154601.510000", "154641.431000", "154641.434000", "154641.437000", "154641.440000", "154641.443000", "154641.446000", "154641.449000", "154641.452000", "154641.455000", "154641.458000", "154641.461000", "154641.473000", "154641.476000", "154641.479000", "154641.482000", "154641.485000", "154641.488000", "154641.491000", "154641.494000", "154641.497000", "154641.500000", "154641.503000", "154641.506000", "154641.509000", "154641.512000", "154641.515000", "154721.431000", "154721.434000", "154721.437000", "154721.440000", "154721.443000", "154721.446000", "154721.449000", "154721.452000", "154721.455000", "154721.458000", "154721.461000", "154721.464000", "154721.467000", "154721.470000", "154721.473000", "154721.476000", "154721.479000", "154721.482000", "154721.485000", "154721.488000", "154721.491000", "154721.494000", "154721.497000", "154721.500000", "154721.503000", "154721.506000", "154721.509000", "154801.431000", "154801.434000", "154801.437000", "154801.440000", "154801.443000", "154801.446000", "154801.449000", "154801.452000", "154801.455000", "154801.458000", "154801.461000", "154801.464000", "154801.467000", "154801.470000", "154801.473000", "154801.476000", "154801.479000", "154801.482000", "154801.485000", "154801.488000", "154801.491000", "154801.494000", "154801.497000", "154801.500000", "154801.503000", "154801.506000", "154801.509000", "154841.431000", "154841.434000", "154841.437000", "154841.440000", "154841.443000", "154841.446000", "154841.449000", "154841.452000", "154841.455000", "154841.458000", "154841.461000", "154841.464000", "154841.467000", "154841.470000", "154841.473000", "154841.476000", "154841.479000", "154841.482000", "154841.486000", "154841.488000", "154841.491000", "154841.494000", "154841.498000", "154841.500000", "154841.503000", "154841.506000", "154841.509000", "154921.431000", "154921.438000", "154921.441000", "154921.444000", "154921.447000", "154921.450000", "154921.453000", "154921.456000", "154921.459000", "154921.462000", "154921.465000", "154921.468000", "154921.471000", "154921.474000", "154921.477000", "154921.480000", "154921.483000", "154921.486000", "154921.489000", "154921.492000", "154921.495000", "154921.498000", "154921.501000", "154921.504000", "154921.507000", "154921.510000", "154921.513000", "155001.431000", "155001.434000", "155001.437000", "155001.440000", "155001.443000", "155001.446000", "155001.449000", "155001.452000", "155001.455000", "155001.458000", "155001.461000", "155001.464000", "155001.467000", "155001.470000", "155001.473000", "155001.476000", "155001.479000", "155001.482000", "155001.491000", "155001.494000", "155001.497000", "155001.500000", "155001.503000", "155001.506000", "155001.509000", "155001.512000", "155001.515000", "155021.431000", "155021.434000", "155021.437000", "155021.440000", "155021.443000", "155021.446000", "155021.449000", "155021.452000", "155021.455000", "155021.458000", "155021.461000", "155021.464000", "155021.467000", "155101.431000", "155101.434000", "155101.437000", "155101.440000", "155101.443000", "155101.446000", "155101.449000", "155101.452000", "155101.455000", "155101.458000", "155101.461000", "155101.464000", "155101.467000", "155101.470000", "155101.473000", "155101.476000", "155101.479000", "155101.482000", "155101.485000", "155101.488000", "155101.492000", "155101.494000", "155101.497000", "155101.500000", "155101.503000", "155101.506000", "155101.509000", "155141.431000", "155141.434000", "155141.437000", "155141.440000", "155141.443000", "155141.446000", "155141.449000", "155141.453000", "155141.455000", "155141.458000", "155141.461000", "155141.465000", "155141.468000", "155141.471000", "155141.473000", "155141.477000", "155141.480000", "155141.483000", "155141.486000", "155141.489000", "155141.492000", "155141.495000", "155141.498000", "155141.501000", "155141.504000", "155141.507000", "155141.510000", "155221.431000", "155221.434000", "155221.437000", "155221.440000", "155221.443000", "155221.446000", "155221.449000", "155221.452000", "155221.455000", "155221.458000", "155221.461000", "155221.464000", "155221.467000", "155221.470000", "155221.473000", "155221.476000", "155221.479000", "155221.482000", "155221.486000", "155221.488000", "155221.491000", "155221.494000", "155221.497000", "155221.500000", "155221.503000", "155221.506000", "155221.509000", "155301.432000", "155301.435000", "155301.438000", "155301.441000", "155301.444000", "155301.447000", "155301.450000", "155301.453000", "155301.457000", "155301.460000", "155301.463000", "155301.466000", "155301.469000", "155301.472000", "155301.476000", "155301.479000", "155301.483000", "155301.486000", "155301.489000", "155301.492000", "155301.495000", "155301.498000", "155301.501000", "155301.504000", "155301.507000", "155301.510000", "155341.431000", "155341.434000", "155341.437000", "155341.440000", "155341.443000", "155341.446000", "155341.449000", "155341.452000", "155341.455000", "155341.458000", "155341.461000", "155341.464000", "155341.467000", "155341.470000", "155341.473000", "155341.476000", "155341.479000", "155341.482000", "155341.485000", "155341.489000", "155341.492000", "155341.494000", "155341.497000", "155341.500000", "155341.503000", "155341.506000", "155341.509000", "155412.122000", "155412.126000", "155412.129000", "155412.132000", "155412.135000", "155412.138000", "155412.141000", "155412.144000", "155412.147000", "155412.150000", "155412.153000", "155412.156000", "155412.159000", "155412.162000", "155412.165000", "155412.168000", "155412.171000", "155412.174000", "155412.177000", "155412.190000", "155412.193000"],
