{
  "AcquisitionMatrixPE": 104,
  "AcquisitionNumber": 1,
  "AcquisitionTime": "15:55:11.035000",
  "BandwidthPerPixelPhaseEncode": 17.17,
  "BaseResolution": 104,
  "BodyPartExamined": "BRAIN",
  "CoilString": "HC1-7;NC1_2",
  "ConsistencyInfo": "N4_VE11C_LATEST_20160120",
  "ConversionSoftware": "dcm2niix",
  "ConversionSoftwareVersion": "v1.0.20200427",
  "DerivedVendorReportedEchoSpacing": 0.000560011,
  "DeviceSerialNumber": "167006",
  "DwellTime": 2.1e-06,
  "EchoTime": 0.037,
  "EchoTrainLength": 104,
  "EffectiveEchoSpacing": 0.000560011,
  "FlipAngle": 52,
  "ImageComments": "Unaliased_MB4_PE3_LB",
  "ImageOrientationPatientDICOM": [0.996612, 0.0746355, 0.0345695, -0.0627015, 0.961381, -0.267983],
  "ImageType": [
    "ORIGINAL",
    "PRIMARY",
    "M",
    "MB",
    "ND",
    "MOSAIC"
],
  "ImagingFrequency": 123.259,
  "InPlanePhaseEncodingDirectionDICOM": "COL",
  "InstitutionAddress": "Chemin_Queen-Mary_4565_Montreal_District_CA_H3W_1W5",
  "InstitutionName": "IUGM",
  "InstitutionalDepartmentName": "Department",
  "MRAcquisitionType": "2D",
  "MagneticFieldStrength": 3,
  "Manufacturer": "Siemens",
  "ManufacturersModelName": "Prisma_fit",
  "Modality": "MR",
  "MultibandAccelerationFactor": 4,
  "PartialFourier": 1,
  "PatientPosition": "HFS",
  "PercentPhaseFOV": 100,
  "PercentSampling": 100,
  "PhaseEncodingDirection": "j",
  "PhaseEncodingSteps": 104,
  "PhaseResolution": 1,
  "PixelBandwidth": 2290,
  "ProcedureStepDescription": "games_shinobi",
  "ProtocolName": "func_task-shinobi_run-4",
  "PulseSequenceDetails": "%CustomerSeq%_cmrr_mbep2d_bold",
  "ReceiveCoilActiveElements": "HC1-7;NC1,2",
  "ReceiveCoilName": "HeadNeck_64",
  "ReconMatrixPE": 104,
  "RepetitionTime": 1.49,
  "SAR": 0.0366201,
  "ScanOptions": "FS",
  "ScanningSequence": "EP",
  "SequenceName": "epfid2d1_104",
  "SequenceVariant": "SK_SS",
  "SeriesDescription": "func_task-shinobi_run-4",
  "SeriesNumber": 15,
  "ShimSetting": [639, -7214, -8832, 694, 119, -16, 64, -22],
  "SliceThickness": 2,
  "SliceTiming": [0, 0.785, 0.0975, 0.8825, 0.1975, 0.98, 0.295, 1.0775, 0.3925, 1.1775, 0.49, 1.275, 0.5875, 1.3725, 0.6875, 0, 0.785, 0.0975, 0.8825, 0.1975, 0.98, 0.295, 1.0775, 0.3925, 1.1775, 0.49, 1.275, 0.5875, 1.3725, 0.6875, 0, 0.785, 0.0975, 0.8825, 0.1975, 0.98, 0.295, 1.0775, 0.3925, 1.1775, 0.49, 1.275, 0.5875, 1.3725, 0.6875, 0, 0.785, 0.0975, 0.8825, 0.1975, 0.98, 0.295, 1.0775, 0.3925, 1.1775, 0.49, 1.275, 0.5875, 1.3725, 0.6875],
  "SoftwareVersions": "syngo_MR_E11",
  "SpacingBetweenSlices": 2,
  "StationName": "MRC35049",
  "TaskName": "shinobi",
  "TotalReadoutTime": 0.0576811,
  "TxRefAmp": 244.469,
  "WipMemBlock": "76e41778-dc6b-4336-b15d-a4e1dbe23338||Sequence: R016 ve11c/master r/e634e98; Dec 19 2017 11:00:25 by eja",
  "dcmmeta_affine": [
    [-1.9932230710983276, -0.12540309131145477, 0.10647104680538177, 110.1131820678711],
    [-0.1492709219455719, 1.9227622747421265, -0.5298143625259399, -57.49211502075195],
    [0.06913907825946808, 0.535965621471405, 1.9256064891815186, -57.1226692199707],
    [0.0, 0.0, 0.0, 1.0]
],
  "dcmmeta_reorient_transform": [
    [0.0, -1.0, 0.0, 103.0],
    [1.0, 0.0, 0.0, 0.0],
    [0.0, 0.0, 1.0, 0.0],
    [0.0, 0.0, 0.0, 1.0]
],
  "dcmmeta_shape": [104, 104, 60, 463],
  "dcmmeta_slice_dim": 2,
  "dcmmeta_version": 0.6,
  "global": {
    "const": {
      "AcquisitionMatrix": [104, 0, 0, 104],
      "AngioFlag": "N",
      "BitsAllocated": 16,
      "BitsStored": 16,
      "BodyPartExamined": "BRAIN",
      "Columns": 832,
      "EchoNumbers": 1,
      "EchoTime": 37.0,
      "EchoTrainLength": 104,
      "FlipAngle": 52.0,
      "HighBit": 15,
      "ImageOrientationPatient": [0.99661150645587, 0.07463546176795, 0.03456953928612, -0.0627015478402, 0.96138115582726, -0.267982814969],
      "ImagePositionPatient": [-777.08311182441, -894.77250079649, 168.00665574716],
      "ImageType": [
        "ORIGINAL",
        "PRIMARY",
        "M",
        "MB",
        "ND",
        "MOSAIC"
],
      "ImagedNucleus": "1H",
      "ImagingFrequency": 123.259078,
      "InPlanePhaseEncodingDirection": "COL",
      "MRAcquisitionType": "2D",
      "MagneticFieldStrength": 3.0,
      "Manufacturer": "SIEMENS",
      "ManufacturerModelName": "Prisma_fit",
      "Modality": "MR",
      "NumberOfAverages": 1.0,
      "NumberOfPhaseEncodingSteps": 104,
      "PercentPhaseFieldOfView": 100.0,
      "PercentSampling": 100.0,
      "PerformedProcedureStepStartTime": "151227.116000",
      "PhotometricInterpretation": "MONOCHROME2",
      "PixelBandwidth": 2290.0,
      "PixelRepresentation": 0,
      "PixelSpacing": [2.0, 2.0],
      "ProtocolName": "func_task-shinobi_run-4",
      "RepetitionTime": 1490.0,
      "Rows": 832,
      "SAR": 0.03662007203589,
      "SamplesPerPixel": 1,
      "ScanOptions": "FS",
      "ScanningSequence": "EP",
      "SequenceName": "epfid2d1_104",
      "SequenceVariant": [
        "SK",
        "SS"
],
      "SeriesDescription": "func_task-shinobi_run-4",
      "SeriesNumber": 15,
      "SeriesTime": "155638.170000",
      "SliceLocation": -33.905885206224,
      "SliceThickness": 2.0,
      "SmallestImagePixelValue": 0,
      "SoftwareVersions": "syngo MR E11",
      "SpacingBetweenSlices": 1.9999999551134,
      "SpecificCharacterSet": "ISO_IR 100",
      "StudyID": "2",
      "StudyTime": "151227.067000",
      "TransmitCoilName": "Body",
      "VariableFlipAngleFlag": "N",
      "WindowCenterWidthExplanation": "Algo1",
      "dBdt": 0.0},
    "slices": {}
  },
  "time": {
    "samples": {
      "AcquisitionNumber": [1, 2, 3, 4, 5, 6, 7, 8, 9, 10, 11, 12, 13, 14, 15, 16, 17, 18, 19, 20, 21, 22, 23, 24, 25, 26, 27, 28, 29, 30, 31, 32, 33, 34, 35, 36, 37, 38, 39, 40, 41, 42, 43, 44, 45, 46, 47, 48, 49, 50, 51, 52, 53, 54, 55, 56, 57, 58, 59, 60, 61, 62, 63, 64, 65, 66, 67, 68, 69, 70, 71, 72, 73, 74, 75, 76, 77, 78, 79, 80, 81, 82, 83, 84, 85, 86, 87, 88, 89, 90, 91, 92, 93, 94, 95, 96, 97, 98, 99, 100, 101, 102, 103, 104, 105, 106, 107, 108, 109, 110, 111, 112, 113, 114, 115, 116, 117, 118, 119, 120, 121, 122, 123, 124, 125, 126, 127, 128, 129, 130, 131, 132, 133, 134, 135, 136, 137, 138, 139, 140, 141, 142, 143, 144, 145, 146, 147, 148, 149, 150, 151, 152, 153, 154, 155, 156, 157, 158, 159, 160, 161, 162, 163, 164, 165, 166, 167, 168, 169, 170, 171, 172, 173, 174, 175, 176, 177, 178, 179, 180, 181, 182, 183, 184, 185, 186, 187, 188, 189, 190, 191, 192, 193, 194, 195, 196, 197, 198, 199, 200, 201, 202, 203, 204, 205, 206, 207, 208, 209, 210, 211, 212, 213, 214, 215, 216, 217, 218, 219, 220, 221, 222, 223, 224, 225, 226, 227, 228, 229, 230, 231, 232, 233, 234, 235, 236, 237, 238, 239, 240, 241, 242, 243, 244, 245, 246, 247, 248, 249, 250, 251, 252, 253, 254, 255, 256, 257, 258, 259, 260, 261, 262, 263, 264, 265, 266, 267, 268, 269, 270, 271, 272, 273, 274, 275, 276, 277, 278, 279, 280, 281, 282, 283, 284, 285, 286, 287, 288, 289, 290, 291, 292, 293, 294, 295, 296, 297, 298, 299, 300, 301, 302, 303, 304, 305, 306, 307, 308, 309, 310, 311, 312, 313, 314, 315, 316, 317, 318, 319, 320, 321, 322, 323, 324, 325, 326, 327, 328, 329, 330, 331, 332, 333, 334, 335, 336, 337, 338, 339, 340, 341, 342, 343, 344, 345, 346, 347, 348, 349, 350, 351, 352, 353, 354, 355, 356, 357, 358, 359, 360, 361, 362, 363, 364, 365, 366, 367, 368, 369, 370, 371, 372, 373, 374, 375, 376, 377, 378, 379, 380, 381, 382, 383, 384, 385, 386, 387, 388, 389, 390, 391, 392, 393, 394, 395, 396, 397, 398, 399, 400, 401, 402, 403, 404, 405, 406, 407, 408, 409, 410, 411, 412, 413, 414, 415, 416, 417, 418, 419, 420, 421, 422, 423, 424, 425, 426, 427, 428, 429, 430, 431, 432, 433, 434, 435, 436, 437, 438, 439, 440, 441, 442, 443, 444, 445, 446, 447, 448, 449, 450, 451, 452, 453, 454, 455, 456, 457, 458, 459, 460, 461, 462, 463],
      "AcquisitionTime": ["155511.035000", "155512.525000", "155514.015000", "155515.505000", "155516.995000", "155518.485000", "155519.975000", "155521.465000", "155522.955000", "155524.445000", "155525.935000", "155527.425000", "155528.915000", "155530.405000", "155531.895000", "155533.385000", "155534.875000", "155536.365000", "155537.855000", "155539.345000", "155540.835000", "155542.325000", "155543.815000", "155545.305000", "155546.795000", "155548.285000", "155549.775000", "155551.265000", "155552.755000", "155554.245000", "155555.735000", "155557.225000", "155558.715000", "155600.205000", "155601.695000", "155603.185000", "155604.675000", "155606.165000", "155607.655000", "155609.145000", "155610.635000", "155612.125000", "155613.615000", "155615.105000", "155616.595000", "155618.085000", "155619.575000", "155621.065000", "155622.555000", "155624.045000", "155625.535000", "155627.025000", "155628.515000", "155630.005000", "155631.495000", "155632.985000", "155634.475000", "155635.965000", "155637.455000", "155638.945000", "155640.435000", "155641.925000", "155643.415000", "155644.905000", "155646.395000", "155647.885000", "155649.375000", "155650.865000", "155652.355000", "155653.845000", "155655.335000", "155656.825000", "155658.315000", "155659.805000", "155701.295000", "155702.785000", "155704.275000", "155705.765000", "155707.255000", "155708.745000", "155710.235000", "155711.725000", "155713.215000", "155714.705000", "155716.195000", "155717.685000", "155719.175000", "155720.665000", "155722.155000", "155723.645000", "155725.135000", "155726.625000", "155728.115000", "155729.605000", "155731.095000", "155732.585000", "155734.075000", "155735.565000", "155737.055000", "155738.545000", "155740.035000", "155741.525000", "155743.015000", "155744.505000", "155745.995000", "155747.485000", "155748.975000", "155750.465000", "155751.955000", "155753.445000", "155754.935000", "155756.425000", "155757.915000", "155759.405000", "155800.895000", "155802.385000", "155803.875000", "155805.365000", "155806.855000", "155808.345000", "155809.835000", "155811.325000", "155812.815000", "155814.305000", "155815.795000", "155817.285000", "155818.775000", "155820.265000", "155821.755000", "155823.245000", "155824.735000", "155826.225000", "155827.715000", "155829.205000", "155830.695000", "155832.185000", "155833.675000", "155835.165000", "155836.655000", "155838.145000", "155839.635000", "155841.125000", "155842.615000", "155844.105000", "155845.595000", "155847.085000", "155848.575000", "155850.065000", "155851.555000", "155853.045000", "155854.535000", "155856.025000", "155857.515000", "155859.005000", "155900.495000", "155901.985000", "155903.475000", "155904.965000", "155906.455000", "155907.945000", "155909.435000", "155910.925000", "155912.415000", "155913.905000", "155915.395000", "155916.885000", "155918.375000", "155919.865000", "155921.355000", "155922.845000", "155924.335000", "155925.825000", "155927.315000", "155928.805000", "155930.295000", "155931.785000", "155933.275000", "155934.765000", "155936.255000", "155937.745000", "155939.235000", "155940.725000", "155942.215000", "155943.705000", "155945.195000", "155946.685000", "155948.175000", "155949.665000", "155951.155000", "155952.645000", "155954.135000", "155955.625000", "155957.115000", "155958.605000", "160000.095000", "160001.585000", "160003.075000", "160004.565000", "160006.055000", "160007.545000", "160009.035000", "160010.525000", "160012.015000", "160013.505000", "160014.995000", "160016.485000", "160017.975000", "160019.465000", "160020.955000", "160022.445000", "160023.935000", "160025.425000", "160026.915000", "160028.405000", "160029.895000", "160031.385000", "160032.875000", "160034.365000", "160035.855000", "160037.345000", "160038.835000", "160040.325000", "160041.815000", "160043.305000", "160044.795000", "160046.285000", "160047.775000", "160049.265000", "160050.755000", "160052.245000", "160053.735000", "160055.225000", "160056.715000", "160058.205000", "160059.695000", "160101.185000", "160102.675000", "160104.165000", "160105.655000", "160107.145000", "160108.635000", "160110.125000", "160111.615000", "160113.105000", "160114.595000", "160116.085000", "160117.575000", "160119.065000", "160120.555000", "160122.045000", "160123.535000", "160125.025000", "160126.515000", "160128.005000", "160129.495000", "160130.985000", "160132.475000", "160133.965000", "160135.455000", "160136.945000", "160138.435000", "160139.925000", "160141.415000", "160142.905000", "160144.395000", "160145.885000", "160147.375000", "160148.865000", "160150.355000", "160151.845000", "160153.335000", "160154.825000", "160156.315000", "160157.805000", "160159.295000", "160200.785000", "160202.275000", "160203.765000", "160205.255000", "160206.745000", "160208.235000", "160209.725000", "160211.215000", "160212.705000", "160214.195000", "160215.685000", "160217.175000", "160218.665000", "160220.155000", "160221.645000", "160223.135000", "160224.625000", "160226.115000", "160227.605000", "160229.095000", "160230.585000", "160232.075000", "160233.565000", "160235.055000", "160236.545000", "160238.035000", "160239.525000", "160241.015000", "160242.505000", "160243.995000", "160245.485000", "160246.975000", "160248.465000", "160249.955000", "160251.445000", "160252.935000", "160254.425000", "160255.915000", "160257.405000", "160258.895000", "160300.385000", "160301.875000", "160303.365000", "160304.855000", "160306.345000", "160307.835000", "160309.325000", "160310.815000", "160312.305000", "160313.795000", "160315.285000", "160316.775000", "160318.265000", "160319.755000", "160321.245000", "160322.735000", "160324.225000", "160325.715000", "160327.205000", "160328.695000", "160330.185000", "160331.675000", "160333.165000", "160334.655000", "160336.145000", "160337.635000", "160339.125000", "160340.615000", "160342.105000", "160343.595000", "160345.085000", "160346.575000", "160348.065000", "160349.555000", "160351.045000", "160352.535000", "160354.025000", "160355.515000", "160357.005000", "160358.495000", "160359.985000", "160401.475000", "160402.965000", "160404.455000", "160405.945000", "160407.435000", "160408.925000", "160410.415000", "160411.905000", "160413.395000", "160414.885000", "160416.375000", "160417.865000", "160419.355000", "160420.845000", "160422.335000", "160423.825000", "160425.315000", "160426.805000", "160428.295000", "160429.785000", "160431.275000", "160432.765000", "160434.255000", "160435.745000", "160437.235000", "160438.725000", "160440.215000", "160441.705000", "160443.195000", "160444.685000", "160446.175000", "160447.665000", "160449.155000", "160450.645000", "160452.135000", "160453.625000", "160455.115000", "160456.605000", "160458.095000", "160459.585000", "160501.075000", "160502.565000", "160504.055000", "160505.545000", "160507.035000", "160508.525000", "160510.015000", "160511.505000", "160512.995000", "160514.485000", "160515.975000", "160517.465000", "160518.955000", "160520.445000", "160521.935000", "160523.425000", "160524.915000", "160526.405000", "160527.895000", "160529.385000", "160530.875000", "160532.365000", "160533.855000", "160535.345000", "160536.835000", "160538.325000", "160539.815000", "160541.305000", "160542.795000", "160544.285000", "160545.775000", "160547.265000", "160548.755000", "160550.245000", "160551.735000", "160553.225000", "160554.715000", "160556.205000", "160557.695000", "160559.185000", "160600.675000", "160602.165000", "160603.655000", "160605.145000", "160606.635000", "160608.125000", "160609.615000", "160611.105000", "160612.595000", "160614.085000", "160615.575000", "160617.065000", "160618.555000", "160620.045000", "160621.535000", "160623.025000", "160624.515000", "160626.005000", "160627.495000", "160628.985000", "160630.475000", "160631.965000", "160633.455000", "160634.945000", "160636.435000", "160637.925000", "160639.415000"],
      "ContentTime": ["155638.173000", "155638.177000", "155638.180000", "155638.183000", "155638.186000", "155638.189000", "155638.192000", "155638.195000", "155638.198000", "155638.201000", "155638.204000", "155638.207000", "155638.210000", "155638.213000", "155638.216000", "155638.219000", "155638.222000", "155638.225000", "155638.228000", "155638.230000", "155638.233000", "155638.236000", "155638.239000", "155638.242000", "155638.245000", "155638.248000", "155638.251000", "155638.254000", "155638.257000", "155638.260000", "155638.263000", "155638.268000", "155638.271000", "155638.274000", "155658.136000", "155658.139000", "155658.142000", "155658.145000", "155658.148000", "155658.151000", "155658.154000", "155658.157000", "155658.160000", "155658.163000", "155658.165000", "155658.168000", "155658.171000", "155658.175000", "155658.177000", "155658.180000", "155658.183000", "155658.187000", "155658.189000", "155658.192000", "155718.136000", "155718.139000", "155718.143000", "155718.146000", "155718.149000", "155718.152000", "155718.155000", "155718.158000", "155718.161000", "155718.164000", "155718.167000", "155718.170000", "155718.173000", "155718.176000", "155718.179000", "155718.182000", "155718.185000", "155718.188000", "155718.191000", "155718.194000", "155738.136000", "155738.139000", "155738.142000", "155738.146000", "155738.149000", "155738.152000", "155738.154000", "155738.158000", "155738.161000", "155738.163000", "155738.166000", "155738.169000", "155738.172000", "155738.175000", "155738.178000", "155738.181000", "155738.184000", "155738.187000", "155738.190000", "155738.193000", "155738.196000", "155818.137000", "155818.140000", "155818.143000", "155818.146000", "155818.149000", "155818.152000", "155818.156000", "155818.158000", "155818.168000", "155818.171000", "155818.175000", "155818.178000", "155818.180000", "155818.183000", "155818.187000", "155818.190000", "155818.192000", "155818.195000", "155818.199000", "155818.202000", "155818.205000", "155818.208000", "155818.211000", "155818.214000", "155818.217000", "155818.220000", "155818.223000", "155818.226000", "155818.229000", "155818.232000", "155858.136000", "155858.139000", "155858.142000", "155858.145000", "155858.148000", "155858.151000", "155858.154000", "155858.157000", "155858.160000", "155858.163000", "155858.166000", "155858.169000", "155858.172000", "155858.175000", "155858.178000", "155858.181000", "155858.184000", "155858.187000", "155858.190000", "155858.193000", "155858.196000", "155858.199000", "155858.202000", "155858.205000", "155858.208000", "155858.211000", "155858.214000", "155938.136000", "155938.143000", "155938.146000", "155938.149000", "155938.152000", "155938.155000", "155938.158000", "155938.161000", "155938.164000", "155938.167000", "155938.170000", "155938.173000", "155938.176000", "155938.179000", "155938.182000", "155938.185000", "155938.188000", "155938.200000", "155938.203000", "155938.206000", "155938.209000", "155938.212000", "155938.215000", "155938.219000", "155938.222000", "155938.225000", "160018.137000", "160018.140000", "160018.143000", "160018.147000", "160018.150000", "160018.153000", "160018.156000", "160018.159000", "160018.162000", "160018.165000", "160018.168000", "160018.171000", "160018.174000", "160018.177000", "160018.180000", "160018.183000", "160018.186000", "160018.189000", "160018.192000", "160018.195000", "160018.198000", "160018.201000", "160018.204000", "160018.207000", "160018.210000", "160018.213000", "160018.216000", "160058.136000", "160058.139000", "160058.142000", "160058.145000", "160058.148000", "160058.152000", "160058.155000", "160058.158000", "160058.161000", "160058.164000", "160058.167000", "160058.170000", "160058.173000", "160058.176000", "160058.179000", "160058.182000", "160058.185000", "160058.188000", "160058.192000", "160058.194000", "160058.197000", "160058.200000", "160058.203000", "160058.206000", "160058.209000", "160058.212000", "160058.215000", "160138.136000", "160138.139000", "160138.142000", "160138.145000", "160138.148000", "160138.151000", "160138.154000", "160138.157000", "160138.160000", "160138.163000", "160138.174000", "160138.177000", "160138.180000", "160138.183000", "160138.186000", "160138.189000", "160138.192000", "160138.196000", "160138.199000", "160138.201000", "160138.204000", "160138.207000", "160138.211000", "160138.214000", "160138.217000", "160138.220000", "160138.223000", "160218.136000", "160218.139000", "160218.142000", "160218.145000", "160218.148000", "160218.151000", "160218.154000", "160218.157000", "160218.160000", "160218.163000", "160218.166000", "160218.169000", "160218.172000", "160218.175000", "160218.178000", "160218.181000", "160218.184000", "160218.187000", "160218.190000", "160218.193000", "160218.196000", "160218.199000", "160218.202000", "160218.205000", "160218.208000", "160218.211000", "160218.214000", "160258.137000", "160258.140000", "160258.143000", "160258.146000", "160258.149000", "160258.152000", "160258.155000", "160258.158000", "160258.161000", "160258.164000", "160258.167000", "160258.170000", "160258.173000", "160258.176000", "160258.179000", "160258.182000", "160258.185000", "160258.188000", "160258.191000", "160258.194000", "160258.197000", "160258.200000", "160258.203000", "160258.206000", "160258.209000", "160258.212000", "160258.215000", "160338.136000", "160338.140000", "160338.143000", "160338.146000", "160338.153000", "160338.156000", "160338.159000", "160338.162000", "160338.165000", "160338.168000", "160338.171000", "160338.174000", "160338.177000", "160338.180000", "160338.183000", "160338.186000", "160338.189000", "160338.192000", "160338.195000", "160338.198000", "160338.201000", "160338.204000", "160338.207000", "160338.210000", "160338.213000", "160338.216000", "160338.219000", "160418.136000", "160418.139000", "160418.142000", "160418.145000", "160418.148000", "160418.151000", "160418.154000", "160418.157000", "160418.160000", "160418.163000", "160418.166000", "160418.169000", "160418.182000", "160418.185000", "160418.188000", "160418.191000", "160418.194000", "160418.197000", "160418.200000", "160418.203000", "160418.206000", "160418.210000", "160418.213000", "160418.216000", "160418.219000", "160418.223000", "160458.137000", "160458.140000", "160458.143000", "160458.146000", "160458.149000", "160458.152000", "160458.155000", "160458.158000", "160458.161000", "160458.164000", "160458.167000", "160458.170000", "160458.173000", "160458.176000", "160458.179000", "160458.182000", "160458.185000", "160458.188000", "160458.191000", "160458.195000", "160458.198000", "160458.200000", "160458.203000", "160458.207000", "160458.210000", "160458.213000", "160458.216000", "160538.136000", "160538.139000", "160538.142000", "160538.145000", "160538.148000", "160538.151000", "160538.163000", "160538.166000", "160538.169000", "160538.172000", "160538.175000", "160538.178000", "160538.181000", "160538.184000", "160538.187000", "160538.190000", "160538.193000", "160538.196000", "160538.199000", "160538.202000", "160538.205000", "160538.208000", "160538.211000", "160538.214000", "160538.217000", "160538.220000", "160538.223000", "160618.136000", "160618.139000", "160618.142000", "160618.145000", "160618.148000", "160618.152000", "160618.155000", "160618.158000", "160618.161000", "160618.164000", "160618.167000", "160618.170000", "160618.173000", "160618.176000", "160618.179000", "160618.182000", "160618.185000", "160618.188000", "160618.191000", "160618.194000", "160618.197000", "160618.200000", "160618.203000", "160618.206000", "160618.209000", "160618.212000", "160618.215000", "160641.899000", "160641.902000", "160641.906000", "160641.909000", "160641.912000", "160641.915000", "160641.918000", "160641.921000", "160641.924000", "160641.927000", "160641.930000", "160641.933000", "160641.936000", "160641.939000", "160641.942000", "160641.945000"],
