{
  "AcquisitionMatrixPE": 104,
  "AcquisitionNumber": 1,
  "AcquisitionTime": "13:13:29.575000",
  "BandwidthPerPixelPhaseEncode": 17.17,
  "BaseResolution": 104,
  "BodyPartExamined": "BRAIN",
  "CoilString": "HC1-7;NC1_2",
  "ConsistencyInfo": "N4_VE11C_LATEST_20160120",
  "ConversionSoftware": "dcm2niix",
  "ConversionSoftwareVersion": "v1.0.20190902",
  "DerivedVendorReportedEchoSpacing": 0.000560011,
  "DeviceSerialNumber": "167006",
  "DwellTime": 2.1e-06,
  "EchoTime": 0.037,
  "EchoTrainLength": 104,
  "EffectiveEchoSpacing": 0.000560011,
  "FlipAngle": 52,
  "ImageComments": "Unaliased_MB4_PE3_LB",
  "ImageOrientationPatientDICOM": [0.999054, 0.0164959, -0.0402344, -0.0261611, 0.967086, -0.253102],
  "ImageType": [
    "ORIGINAL",
    "PRIMARY",
    "M",
    "MB",
    "ND",
    "MOSAIC"
],
  "ImagingFrequency": 123.259,
  "InPlanePhaseEncodingDirectionDICOM": "COL",
  "InstitutionAddress": "Chemin_Queen-Mary_4565_Montreal_District_CA_H3W_1W5",
  "InstitutionName": "IUGM",
  "InstitutionalDepartmentName": "Department",
  "MRAcquisitionType": "2D",
  "MagneticFieldStrength": 3,
  "Manufacturer": "Siemens",
  "ManufacturersModelName": "Prisma_fit",
  "Modality": "MR",
  "MultibandAccelerationFactor": 4,
  "PartialFourier": 1,
  "PatientPosition": "HFS",
  "PercentPhaseFOV": 100,
  "PhaseEncodingDirection": "j",
  "PhaseEncodingSteps": 104,
  "PhaseResolution": 1,
  "PixelBandwidth": 2290,
  "ProcedureStepDescription": "games_shinobi",
  "ProtocolName": "func_task-shinobi_run-1",
  "PulseSequenceDetails": "%CustomerSeq%_cmrr_mbep2d_bold",
  "ReceiveCoilActiveElements": "HC1-7;NC1,2",
  "ReceiveCoilName": "HeadNeck_64",
  "ReconMatrixPE": 104,
  "RepetitionTime": 1.49,
  "SAR": 0.0138557,
  "ScanOptions": "FS",
  "ScanningSequence": "EP",
  "SequenceName": "epfid2d1_104",
  "SequenceVariant": "SK_SS",
  "SeriesDescription": "func_task-shinobi_run-1",
  "SeriesNumber": 9,
  "ShimSetting": [612, -7245, -8837, 599, -22, -269, -44, 66],
  "SliceThickness": 2,
  "SliceTiming": [0, 0.7825, 0.0975, 0.88, 0.195, 0.98, 0.2925, 1.0775, 0.39, 1.175, 0.49, 1.2725, 0.5875, 1.37, 0.685, 0, 0.7825, 0.0975, 0.88, 0.195, 0.98, 0.2925, 1.0775, 0.39, 1.175, 0.49, 1.2725, 0.5875, 1.37, 0.685, 0, 0.7825, 0.0975, 0.88, 0.195, 0.98, 0.2925, 1.0775, 0.39, 1.175, 0.49, 1.2725, 0.5875, 1.37, 0.685, 0, 0.7825, 0.0975, 0.88, 0.195, 0.98, 0.2925, 1.0775, 0.39, 1.175, 0.49, 1.2725, 0.5875, 1.37, 0.685],
  "SoftwareVersions": "syngo_MR_E11",
  "SpacingBetweenSlices": 2,
  "StationName": "MRC35049",
  "TaskName": "shinobi",
  "TotalReadoutTime": 0.0576811,
  "TxRefAmp": 217.75,
  "WipMemBlock": "1f7e18fd-744b-4a82-9184-25f1cd05e43e||Sequence: R016 ve11c/master r/e634e98; Dec 19 2017 11:00:25 by eja",
  "dcmmeta_affine": [
    [-1.998108148574829, -0.052322279661893845, -0.06946998834609985, 107.97773742675781],
    [-0.03299189731478691, 1.9341719150543213, -0.5078293681144714, -70.97309112548828],
    [-0.08046884834766388, 0.5062030553817749, 1.933205485343933, -55.615753173828125],
    [0.0, 0.0, 0.0, 1.0]
],
  "dcmmeta_reorient_transform": [
    [0.0, -1.0, 0.0, 103.0],
    [1.0, 0.0, 0.0, 0.0],
    [0.0, 0.0, 1.0, 0.0],
    [0.0, 0.0, 0.0, 1.0]
],
  "dcmmeta_shape": [104, 104, 60, 438],
  "dcmmeta_slice_dim": 2,
  "dcmmeta_version": 0.6,
  "global": {
    "const": {
      "AcquisitionMatrix": [104, 0, 0, 104],
      "AngioFlag": "N",
      "BitsAllocated": 16,
      "BitsStored": 16,
      "BodyPartExamined": "BRAIN",
      "Columns": 832,
      "EchoNumbers": 1,
      "EchoTime": 37.0,
      "EchoTrainLength": 104,
      "FlipAngle": 52.0,
      "HighBit": 15,
      "ImageOrientationPatient": [0.99905409001791, 0.01649594931367, -0.0402344240015, -0.026161140351, 0.96708594181605, -0.253101512989],
      "ImagePositionPatient": [-810.85460795865, -844.29423116773, 210.07171966879],
      "ImageType": [
        "ORIGINAL",
        "PRIMARY",
        "M",
        "MB",
        "ND",
        "MOSAIC"
],
      "ImagedNucleus": "1H",
      "ImagingFrequency": 123.258994,
      "InPlanePhaseEncodingDirection": "COL",
      "MRAcquisitionType": "2D",
      "MagneticFieldStrength": 3.0,
      "Manufacturer": "SIEMENS",
      "ManufacturerModelName": "Prisma_fit",
      "Modality": "MR",
      "NumberOfAverages": 1.0,
      "NumberOfPhaseEncodingSteps": 104,
      "PercentPhaseFieldOfView": 100.0,
      "PercentSampling": 100.0,
      "PerformedProcedureStepStartTime": "125444.594000",
      "PhotometricInterpretation": "MONOCHROME2",
      "PixelBandwidth": 2290.0,
      "PixelRepresentation": 0,
      "PixelSpacing": [2.0, 2.0],
      "ProtocolName": "func_task-shinobi_run-1",
      "RepetitionTime": 1490.0,
      "Rows": 832,
      "SAR": 0.01385568052084,
      "SamplesPerPixel": 1,
      "ScanOptions": "FS",
      "ScanningSequence": "EP",
      "SequenceName": "epfid2d1_104",
      "SequenceVariant": [
        "SK",
        "SS"
],
      "SeriesDescription": "func_task-shinobi_run-1",
      "SeriesNumber": 9,
      "SeriesTime": "131435.221000",
      "SliceLocation": -39.487836013883,
      "SliceThickness": 2.0,
      "SmallestImagePixelValue": 0,
      "SoftwareVersions": "syngo MR E11",
      "SpacingBetweenSlices": 1.9999999895493,
      "SpecificCharacterSet": "ISO_IR 100",
      "StudyID": "1",
      "StudyTime": "125444.302000",
      "TransmitCoilName": "Body",
      "VariableFlipAngleFlag": "N",
      "WindowCenterWidthExplanation": "Algo1",
      "dBdt": 0.0},
    "slices": {}
  },
  "time": {
    "samples": {
      "AcquisitionNumber": [1, 2, 3, 4, 5, 6, 7, 8, 9, 10, 11, 12, 13, 14, 15, 16, 17, 18, 19, 20, 21, 22, 23, 24, 25, 26, 27, 28, 29, 30, 31, 32, 33, 34, 35, 36, 37, 38, 39, 40, 41, 42, 43, 44, 45, 46, 47, 48, 49, 50, 51, 52, 53, 54, 55, 56, 57, 58, 59, 60, 61, 62, 63, 64, 65, 66, 67, 68, 69, 70, 71, 72, 73, 74, 75, 76, 77, 78, 79, 80, 81, 82, 83, 84, 85, 86, 87, 88, 89, 90, 91, 92, 93, 94, 95, 96, 97, 98, 99, 100, 101, 102, 103, 104, 105, 106, 107, 108, 109, 110, 111, 112, 113, 114, 115, 116, 117, 118, 119, 120, 121, 122, 123, 124, 125, 126, 127, 128, 129, 130, 131, 132, 133, 134, 135, 136, 137, 138, 139, 140, 141, 142, 143, 144, 145, 146, 147, 148, 149, 150, 151, 152, 153, 154, 155, 156, 157, 158, 159, 160, 161, 162, 163, 164, 165, 166, 167, 168, 169, 170, 171, 172, 173, 174, 175, 176, 177, 178, 179, 180, 181, 182, 183, 184, 185, 186, 187, 188, 189, 190, 191, 192, 193, 194, 195, 196, 197, 198, 199, 200, 201, 202, 203, 204, 205, 206, 207, 208, 209, 210, 211, 212, 213, 214, 215, 216, 217, 218, 219, 220, 221, 222, 223, 224, 225, 226, 227, 228, 229, 230, 231, 232, 233, 234, 235, 236, 237, 238, 239, 240, 241, 242, 243, 244, 245, 246, 247, 248, 249, 250, 251, 252, 253, 254, 255, 256, 257, 258, 259, 260, 261, 262, 263, 264, 265, 266, 267, 268, 269, 270, 271, 272, 273, 274, 275, 276, 277, 278, 279, 280, 281, 282, 283, 284, 285, 286, 287, 288, 289, 290, 291, 292, 293, 294, 295, 296, 297, 298, 299, 300, 301, 302, 303, 304, 305, 306, 307, 308, 309, 310, 311, 312, 313, 314, 315, 316, 317, 318, 319, 320, 321, 322, 323, 324, 325, 326, 327, 328, 329, 330, 331, 332, 333, 334, 335, 336, 337, 338, 339, 340, 341, 342, 343, 344, 345, 346, 347, 348, 349, 350, 351, 352, 353, 354, 355, 356, 357, 358, 359, 360, 361, 362, 363, 364, 365, 366, 367, 368, 369, 370, 371, 372, 373, 374, 375, 376, 377, 378, 379, 380, 381, 382, 383, 384, 385, 386, 387, 388, 389, 390, 391, 392, 393, 394, 395, 396, 397, 398, 399, 400, 401, 402, 403, 404, 405, 406, 407, 408, 409, 410, 411, 412, 413, 414, 415, 416, 417, 418, 419, 420, 421, 422, 423, 424, 425, 426, 427, 428, 429, 430, 431, 432, 433, 434, 435, 436, 437, 438],
      "AcquisitionTime": ["131329.575000", "131331.065000", "131332.555000", "131334.045000", "131335.535000", "131337.025000", "131338.515000", "131340.005000", "131341.495000", "131342.985000", "131344.475000", "131345.965000", "131347.455000", "131348.945000", "131350.435000", "131351.925000", "131353.415000", "131354.905000", "131356.395000", "131357.885000", "131359.375000", "131400.865000", "131402.355000", "131403.845000", "131405.335000", "131406.825000", "131408.315000", "131409.805000", "131411.295000", "131412.785000", "131414.275000", "131415.765000", "131417.255000", "131418.745000", "131420.235000", "131421.725000", "131423.215000", "131424.705000", "131426.195000", "131427.685000", "131429.175000", "131430.665000", "131432.155000", "131433.645000", "131435.135000", "131436.625000", "131438.115000", "131439.605000", "131441.095000", "131442.585000", "131444.075000", "131445.565000", "131447.055000", "131448.545000", "131450.035000", "131451.525000", "131453.015000", "131454.505000", "131455.995000", "131457.485000", "131458.975000", "131500.465000", "131501.955000", "131503.445000", "131504.935000", "131506.425000", "131507.915000", "131509.405000", "131510.895000", "131512.385000", "131513.875000", "131515.365000", "131516.855000", "131518.345000", "131519.835000", "131521.325000", "131522.815000", "131524.305000", "131525.795000", "131527.285000", "131528.775000", "131530.265000", "131531.755000", "131533.245000", "131534.735000", "131536.225000", "131537.715000", "131539.205000", "131540.695000", "131542.185000", "131543.675000", "131545.165000", "131546.655000", "131548.145000", "131549.635000", "131551.125000", "131552.615000", "131554.105000", "131555.595000", "131557.085000", "131558.575000", "131600.065000", "131601.555000", "131603.045000", "131604.535000", "131606.025000", "131607.515000", "131609.005000", "131610.495000", "131611.985000", "131613.475000", "131614.965000", "131616.455000", "131617.945000", "131619.435000", "131620.925000", "131622.415000", "131623.905000", "131625.395000", "131626.885000", "131628.375000", "131629.865000", "131631.355000", "131632.845000", "131634.335000", "131635.825000", "131637.315000", "131638.805000", "131640.295000", "131641.785000", "131643.275000", "131644.765000", "131646.255000", "131647.745000", "131649.235000", "131650.725000", "131652.215000", "131653.705000", "131655.195000", "131656.685000", "131658.175000", "131659.665000", "131701.155000", "131702.645000", "131704.135000", "131705.625000", "131707.115000", "131708.605000", "131710.095000", "131711.585000", "131713.075000", "131714.565000", "131716.055000", "131717.545000", "131719.035000", "131720.525000", "131722.015000", "131723.505000", "131724.995000", "131726.485000", "131727.975000", "131729.465000", "131730.955000", "131732.445000", "131733.935000", "131735.425000", "131736.915000", "131738.405000", "131739.895000", "131741.385000", "131742.875000", "131744.365000", "131745.855000", "131747.345000", "131748.835000", "131750.325000", "131751.815000", "131753.305000", "131754.795000", "131756.285000", "131757.775000", "131759.265000", "131800.755000", "131802.245000", "131803.735000", "131805.225000", "131806.715000", "131808.205000", "131809.695000", "131811.185000", "131812.675000", "131814.165000", "131815.655000", "131817.145000", "131818.635000", "131820.125000", "131821.615000", "131823.105000", "131824.595000", "131826.085000", "131827.575000", "131829.065000", "131830.555000", "131832.045000", "131833.535000", "131835.025000", "131836.515000", "131838.005000", "131839.495000", "131840.985000", "131842.475000", "131843.965000", "131845.455000", "131846.945000", "131848.435000", "131849.925000", "131851.415000", "131852.905000", "131854.395000", "131855.885000", "131857.375000", "131858.865000", "131900.355000", "131901.845000", "131903.335000", "131904.825000", "131906.315000", "131907.805000", "131909.295000", "131910.785000", "131912.275000", "131913.765000", "131915.255000", "131916.745000", "131918.235000", "131919.725000", "131921.215000", "131922.705000", "131924.195000", "131925.685000", "131927.175000", "131928.665000", "131930.155000", "131931.645000", "131933.135000", "131934.625000", "131936.115000", "131937.605000", "131939.095000", "131940.585000", "131942.075000", "131943.565000", "131945.055000", "131946.545000", "131948.035000", "131949.525000", "131951.015000", "131952.505000", "131953.995000", "131955.485000", "131956.975000", "131958.465000", "131959.955000", "132001.445000", "132002.935000", "132004.425000", "132005.915000", "132007.405000", "132008.895000", "132010.385000", "132011.875000", "132013.365000", "132014.855000", "132016.345000", "132017.835000", "132019.325000", "132020.815000", "132022.305000", "132023.795000", "132025.285000", "132026.775000", "132028.265000", "132029.755000", "132031.245000", "132032.735000", "132034.225000", "132035.715000", "132037.205000", "132038.695000", "132040.185000", "132041.675000", "132043.165000", "132044.655000", "132046.145000", "132047.635000", "132049.125000", "132050.615000", "132052.105000", "132053.595000", "132055.085000", "132056.575000", "132058.065000", "132059.555000", "132101.045000", "132102.535000", "132104.025000", "132105.515000", "132107.005000", "132108.495000", "132109.985000", "132111.475000", "132112.965000", "132114.455000", "132115.945000", "132117.435000", "132118.925000", "132120.415000", "132121.905000", "132123.395000", "132124.885000", "132126.375000", "132127.865000", "132129.355000", "132130.845000", "132132.335000", "132133.825000", "132135.315000", "132136.805000", "132138.295000", "132139.785000", "132141.275000", "132142.765000", "132144.255000", "132145.745000", "132147.235000", "132148.725000", "132150.215000", "132151.705000", "132153.195000", "132154.685000", "132156.175000", "132157.665000", "132159.155000", "132200.645000", "132202.135000", "132203.625000", "132205.115000", "132206.605000", "132208.095000", "132209.585000", "132211.075000", "132212.565000", "132214.055000", "132215.545000", "132217.035000", "132218.525000", "132220.015000", "132221.505000", "132222.995000", "132224.485000", "132225.975000", "132227.465000", "132228.955000", "132230.445000", "132231.935000", "132233.425000", "132234.915000", "132236.405000", "132237.895000", "132239.385000", "132240.875000", "132242.365000", "132243.855000", "132245.345000", "132246.835000", "132248.325000", "132249.815000", "132251.305000", "132252.795000", "132254.285000", "132255.775000", "132257.265000", "132258.755000", "132300.245000", "132301.735000", "132303.225000", "132304.715000", "132306.205000", "132307.695000", "132309.185000", "132310.675000", "132312.165000", "132313.655000", "132315.145000", "132316.635000", "132318.125000", "132319.615000", "132321.105000", "132322.595000", "132324.085000", "132325.575000", "132327.065000", "132328.555000", "132330.045000", "132331.535000", "132333.025000", "132334.515000", "132336.005000", "132337.495000", "132338.985000", "132340.475000", "132341.965000", "132343.455000", "132344.945000", "132346.435000", "132347.925000", "132349.415000", "132350.905000", "132352.395000", "132353.885000", "132355.375000", "132356.865000", "132358.355000", "132359.845000", "132401.335000", "132402.825000", "132404.315000", "132405.805000", "132407.295000", "132408.785000", "132410.275000", "132411.765000", "132413.255000", "132414.745000", "132416.235000", "132417.725000", "132419.215000", "132420.705000"],
      "ContentTime": ["131435.223000", "131435.227000", "131435.230000", "131435.233000", "131435.236000", "131435.239000", "131435.241000", "131435.255000", "131435.257000", "131435.262000", "131435.265000", "131455.185000", "131455.188000", "131455.191000", "131455.201000", "131455.204000", "131455.207000", "131455.210000", "131455.213000", "131455.215000", "131455.218000", "131455.221000", "131455.224000", "131455.227000", "131455.230000", "131455.233000", "131455.236000", "131455.239000", "131455.242000", "131455.248000", "131455.251000", "131515.185000", "131515.188000", "131515.191000", "131515.194000", "131515.197000", "131515.199000", "131515.202000", "131515.205000", "131515.208000", "131515.211000", "131515.214000", "131515.217000", "131515.220000", "131515.223000", "131515.226000", "131515.229000", "131515.232000", "131515.235000", "131515.237000", "131515.240000", "131515.243000", "131535.185000", "131535.188000", "131535.191000", "131535.194000", "131535.197000", "131535.200000", "131535.203000", "131535.205000", "131535.208000", "131535.211000", "131535.214000", "131535.217000", "131535.220000", "131535.223000", "131535.226000", "131535.229000", "131535.232000", "131535.235000", "131535.237000", "131535.240000", "131555.185000", "131555.188000", "131555.198000", "131555.201000", "131555.204000", "131555.207000", "131555.210000", "131555.213000", "131555.216000", "131555.219000", "131555.222000", "131555.224000", "131555.227000", "131555.230000", "131555.233000", "131555.236000", "131555.239000", "131555.242000", "131555.245000", "131555.248000", "131635.185000", "131635.188000", "131635.191000", "131635.194000", "131635.197000", "131635.200000", "131635.203000", "131635.206000", "131635.208000", "131635.211000", "131635.214000", "131635.217000", "131635.220000", "131635.223000", "131635.226000", "131635.229000", "131635.232000", "131635.235000", "131635.238000", "131635.241000", "131635.243000", "131635.246000", "131635.249000", "131635.252000", "131635.255000", "131635.258000", "131635.261000", "131635.264000", "131635.267000", "131635.270000", "131635.273000", "131635.276000", "131715.185000", "131715.188000", "131715.191000", "131715.194000", "131715.197000", "131715.200000", "131715.203000", "131715.206000", "131715.209000", "131715.212000", "131715.215000", "131715.218000", "131715.221000", "131715.224000", "131715.226000", "131715.229000", "131715.232000", "131715.235000", "131715.238000", "131715.241000", "131715.244000", "131715.247000", "131715.250000", "131715.253000", "131715.256000", "131715.259000", "131715.261000", "131755.185000", "131755.188000", "131755.191000", "131755.194000", "131755.197000", "131755.200000", "131755.203000", "131755.206000", "131755.209000", "131755.212000", "131755.214000", "131755.217000", "131755.220000", "131755.223000", "131755.226000", "131755.229000", "131755.232000", "131755.235000", "131755.238000", "131755.241000", "131755.244000", "131755.246000", "131755.249000", "131755.252000", "131755.255000", "131755.258000", "131755.261000", "131835.185000", "131835.188000", "131835.191000", "131835.194000", "131835.197000", "131835.200000", "131835.203000", "131835.206000", "131835.209000", "131835.212000", "131835.215000", "131835.218000", "131835.221000", "131835.224000", "131835.226000", "131835.229000", "131835.232000", "131835.245000", "131835.248000", "131835.251000", "131835.254000", "131835.257000", "131835.260000", "131835.263000", "131835.266000", "131835.269000", "131915.185000", "131915.188000", "131915.191000", "131915.194000", "131915.197000", "131915.200000", "131915.203000", "131915.206000", "131915.209000", "131915.212000", "131915.215000", "131915.218000", "131915.220000", "131915.223000", "131915.226000", "131915.229000", "131915.232000", "131915.235000", "131915.238000", "131915.241000", "131915.244000", "131915.247000", "131915.250000", "131915.253000", "131915.256000", "131915.259000", "131915.262000", "131955.185000", "131955.188000", "131955.191000", "131955.194000", "131955.197000", "131955.200000", "131955.203000", "131955.206000", "131955.209000", "131955.212000", "131955.214000", "131955.217000", "131955.220000", "131955.223000", "131955.226000", "131955.229000", "131955.232000", "131955.235000", "131955.238000", "131955.241000", "131955.244000", "131955.247000", "131955.250000", "131955.252000", "131955.255000", "131955.258000", "131955.261000", "132035.185000", "132035.188000", "132035.191000", "132035.194000", "132035.197000", "132035.200000", "132035.203000", "132035.206000", "132035.209000", "132035.211000", "132035.214000", "132035.217000", "132035.220000", "132035.223000", "132035.226000", "132035.229000", "132035.232000", "132035.235000", "132035.238000", "132035.241000", "132035.244000", "132035.247000", "132035.249000", "132035.252000", "132035.255000", "132035.258000", "132035.261000", "132115.185000", "132115.188000", "132115.191000", "132115.194000", "132115.197000", "132115.200000", "132115.203000", "132115.206000", "132115.209000", "132115.212000", "132115.214000", "132115.217000", "132115.220000", "132115.223000", "132115.226000", "132115.229000", "132115.232000", "132115.235000", "132115.238000", "132115.241000", "132115.244000", "132115.247000", "132115.250000", "132115.253000", "132115.255000", "132115.258000", "132115.261000", "132155.185000", "132155.188000", "132155.191000", "132155.194000", "132155.197000", "132155.200000", "132155.203000", "132155.206000", "132155.209000", "132155.212000", "132155.215000", "132155.218000", "132155.221000", "132155.223000", "132155.226000", "132155.229000", "132155.232000", "132155.235000", "132155.238000", "132155.241000", "132155.244000", "132155.247000", "132155.250000", "132155.253000", "132155.256000", "132155.259000", "132155.262000", "132215.185000", "132215.188000", "132215.191000", "132215.194000", "132215.197000", "132215.200000", "132215.203000", "132215.206000", "132215.209000", "132215.211000", "132215.214000", "132215.217000", "132215.220000", "132255.185000", "132255.188000", "132255.191000", "132255.194000", "132255.197000", "132255.200000", "132255.203000", "132255.206000", "132255.209000", "132255.211000", "132255.214000", "132255.217000", "132255.220000", "132255.223000", "132255.226000", "132255.229000", "132255.232000", "132255.235000", "132255.238000", "132255.241000", "132255.244000", "132255.247000", "132255.250000", "132255.253000", "132255.256000", "132255.258000", "132255.271000", "132335.185000", "132335.188000", "132335.191000", "132335.194000", "132335.197000", "132335.200000", "132335.203000", "132335.206000", "132335.209000", "132335.212000", "132335.215000", "132335.218000", "132335.221000", "132335.224000", "132335.226000", "132335.229000", "132335.232000", "132335.235000", "132335.238000", "132335.241000", "132335.244000", "132335.247000", "132335.250000", "132335.253000", "132335.256000", "132335.259000", "132335.262000", "132415.185000", "132415.188000", "132415.191000", "132415.194000", "132415.197000", "132415.200000", "132415.203000", "132415.206000", "132415.209000", "132415.212000", "132415.214000", "132415.217000", "132415.220000", "132415.223000", "132415.226000", "132415.229000", "132415.232000", "132415.235000", "132415.238000", "132415.241000", "132415.244000", "132415.246000", "132415.249000", "132415.252000", "132415.255000", "132415.258000", "132415.261000", "132422.862000", "132422.866000", "132422.869000", "132422.872000", "132422.875000"],
