{
  "AcquisitionMatrixPE": 104,
  "AcquisitionNumber": 1,
  "AcquisitionTime": "13:24:57.977500",
  "BandwidthPerPixelPhaseEncode": 17.17,
  "BaseResolution": 104,
  "BodyPartExamined": "BRAIN",
  "CoilString": "HC1-7;NC1_2",
  "ConsistencyInfo": "N4_VE11C_LATEST_20160120",
  "ConversionSoftware": "dcm2niix",
  "ConversionSoftwareVersion": "v1.0.20190902",
  "DerivedVendorReportedEchoSpacing": 0.000560011,
  "DeviceSerialNumber": "167006",
  "DwellTime": 2.1e-06,
  "EchoTime": 0.037,
  "EchoTrainLength": 104,
  "EffectiveEchoSpacing": 0.000560011,
  "FlipAngle": 52,
  "ImageComments": "Unaliased_MB4_PE3_LB",
  "ImageOrientationPatientDICOM": [0.999054, 0.0164959, -0.0402344, -0.0261611, 0.967086, -0.253102],
  "ImageType": [
    "ORIGINAL",
    "PRIMARY",
    "M",
    "MB",
    "ND",
    "MOSAIC"
],
  "ImagingFrequency": 123.259,
  "InPlanePhaseEncodingDirectionDICOM": "COL",
  "InstitutionAddress": "Chemin_Queen-Mary_4565_Montreal_District_CA_H3W_1W5",
  "InstitutionName": "IUGM",
  "InstitutionalDepartmentName": "Department",
  "MRAcquisitionType": "2D",
  "MagneticFieldStrength": 3,
  "Manufacturer": "Siemens",
  "ManufacturersModelName": "Prisma_fit",
  "Modality": "MR",
  "MultibandAccelerationFactor": 4,
  "PartialFourier": 1,
  "PatientPosition": "HFS",
  "PercentPhaseFOV": 100,
  "PhaseEncodingDirection": "j",
  "PhaseEncodingSteps": 104,
  "PhaseResolution": 1,
  "PixelBandwidth": 2290,
  "ProcedureStepDescription": "games_shinobi",
  "ProtocolName": "func_task-shinobi_run-2",
  "PulseSequenceDetails": "%CustomerSeq%_cmrr_mbep2d_bold",
  "ReceiveCoilActiveElements": "HC1-7;NC1,2",
  "ReceiveCoilName": "HeadNeck_64",
  "ReconMatrixPE": 104,
  "RepetitionTime": 1.49,
  "SAR": 0.0138557,
  "ScanOptions": "FS",
  "ScanningSequence": "EP",
  "SequenceName": "epfid2d1_104",
  "SequenceVariant": "SK_SS",
  "SeriesDescription": "func_task-shinobi_run-2",
  "SeriesNumber": 11,
  "ShimSetting": [612, -7245, -8837, 599, -22, -269, -44, 66],
  "SliceThickness": 2,
  "SliceTiming": [0, 0.785, 0.0975, 0.8825, 0.1975, 0.98, 0.295, 1.0775, 0.3925, 1.175, 0.49, 1.275, 0.5875, 1.3725, 0.6875, 0, 0.785, 0.0975, 0.8825, 0.1975, 0.98, 0.295, 1.0775, 0.3925, 1.175, 0.49, 1.275, 0.5875, 1.3725, 0.6875, 0, 0.785, 0.0975, 0.8825, 0.1975, 0.98, 0.295, 1.0775, 0.3925, 1.175, 0.49, 1.275, 0.5875, 1.3725, 0.6875, 0, 0.785, 0.0975, 0.8825, 0.1975, 0.98, 0.295, 1.0775, 0.3925, 1.175, 0.49, 1.275, 0.5875, 1.3725, 0.6875],
  "SoftwareVersions": "syngo_MR_E11",
  "SpacingBetweenSlices": 2,
  "StationName": "MRC35049",
  "TaskName": "shinobi",
  "TotalReadoutTime": 0.0576811,
  "TxRefAmp": 217.75,
  "WipMemBlock": "3e2088e4-e747-4ad4-9818-67e5d0ef8ed7||Sequence: R016 ve11c/master r/e634e98; Dec 19 2017 11:00:25 by eja",
  "dcmmeta_affine": [
    [-1.998108148574829, -0.052322279661893845, -0.06946998834609985, 107.97773742675781],
    [-0.03299189731478691, 1.9341719150543213, -0.5078293681144714, -70.97309112548828],
    [-0.08046884834766388, 0.5062030553817749, 1.933205485343933, -55.615753173828125],
    [0.0, 0.0, 0.0, 1.0]
],
  "dcmmeta_reorient_transform": [
    [0.0, -1.0, 0.0, 103.0],
    [1.0, 0.0, 0.0, 0.0],
    [0.0, 0.0, 1.0, 0.0],
    [0.0, 0.0, 0.0, 1.0]
],
  "dcmmeta_shape": [104, 104, 60, 424],
  "dcmmeta_slice_dim": 2,
  "dcmmeta_version": 0.6,
  "global": {
    "const": {
      "AcquisitionMatrix": [104, 0, 0, 104],
      "AngioFlag": "N",
      "BitsAllocated": 16,
      "BitsStored": 16,
      "BodyPartExamined": "BRAIN",
      "Columns": 832,
      "EchoNumbers": 1,
      "EchoTime": 37.0,
      "EchoTrainLength": 104,
      "FlipAngle": 52.0,
      "HighBit": 15,
      "ImageOrientationPatient": [0.99905409001791, 0.01649594931367, -0.0402344240015, -0.026161140351, 0.96708594181605, -0.253101512989],
      "ImagePositionPatient": [-810.85460795865, -844.29423116773, 210.07171966879],
      "ImageType": [
        "ORIGINAL",
        "PRIMARY",
        "M",
        "MB",
        "ND",
        "MOSAIC"
],
      "ImagedNucleus": "1H",
      "ImagingFrequency": 123.259,
      "InPlanePhaseEncodingDirection": "COL",
      "MRAcquisitionType": "2D",
      "MagneticFieldStrength": 3.0,
      "Manufacturer": "SIEMENS",
      "ManufacturerModelName": "Prisma_fit",
      "Modality": "MR",
      "NumberOfAverages": 1.0,
      "NumberOfPhaseEncodingSteps": 104,
      "PercentPhaseFieldOfView": 100.0,
      "PercentSampling": 100.0,
      "PerformedProcedureStepStartTime": "125444.594000",
      "PhotometricInterpretation": "MONOCHROME2",
      "PixelBandwidth": 2290.0,
      "PixelRepresentation": 0,
      "PixelSpacing": [2.0, 2.0],
      "ProtocolName": "func_task-shinobi_run-2",
      "RepetitionTime": 1490.0,
      "Rows": 832,
      "SAR": 0.01385568052084,
      "SamplesPerPixel": 1,
      "ScanOptions": "FS",
      "ScanningSequence": "EP",
      "SequenceName": "epfid2d1_104",
      "SequenceVariant": [
        "SK",
        "SS"
],
      "SeriesDescription": "func_task-shinobi_run-2",
      "SeriesNumber": 11,
      "SeriesTime": "132614.461000",
      "SliceLocation": -39.487836013883,
      "SliceThickness": 2.0,
      "SmallestImagePixelValue": 0,
      "SoftwareVersions": "syngo MR E11",
      "SpacingBetweenSlices": 1.9999999895493,
      "SpecificCharacterSet": "ISO_IR 100",
      "StudyID": "1",
      "StudyTime": "125444.302000",
      "TransmitCoilName": "Body",
      "VariableFlipAngleFlag": "N",
      "WindowCenterWidthExplanation": "Algo1",
      "dBdt": 0.0},
    "slices": {}
  },
  "time": {
    "samples": {
      "AcquisitionNumber": [1, 2, 3, 4, 5, 6, 7, 8, 9, 10, 11, 12, 13, 14, 15, 16, 17, 18, 19, 20, 21, 22, 23, 24, 25, 26, 27, 28, 29, 30, 31, 32, 33, 34, 35, 36, 37, 38, 39, 40, 41, 42, 43, 44, 45, 46, 47, 48, 49, 50, 51, 52, 53, 54, 55, 56, 57, 58, 59, 60, 61, 62, 63, 64, 65, 66, 67, 68, 69, 70, 71, 72, 73, 74, 75, 76, 77, 78, 79, 80, 81, 82, 83, 84, 85, 86, 87, 88, 89, 90, 91, 92, 93, 94, 95, 96, 97, 98, 99, 100, 101, 102, 103, 104, 105, 106, 107, 108, 109, 110, 111, 112, 113, 114, 115, 116, 117, 118, 119, 120, 121, 122, 123, 124, 125, 126, 127, 128, 129, 130, 131, 132, 133, 134, 135, 136, 137, 138, 139, 140, 141, 142, 143, 144, 145, 146, 147, 148, 149, 150, 151, 152, 153, 154, 155, 156, 157, 158, 159, 160, 161, 162, 163, 164, 165, 166, 167, 168, 169, 170, 171, 172, 173, 174, 175, 176, 177, 178, 179, 180, 181, 182, 183, 184, 185, 186, 187, 188, 189, 190, 191, 192, 193, 194, 195, 196, 197, 198, 199, 200, 201, 202, 203, 204, 205, 206, 207, 208, 209, 210, 211, 212, 213, 214, 215, 216, 217, 218, 219, 220, 221, 222, 223, 224, 225, 226, 227, 228, 229, 230, 231, 232, 233, 234, 235, 236, 237, 238, 239, 240, 241, 242, 243, 244, 245, 246, 247, 248, 249, 250, 251, 252, 253, 254, 255, 256, 257, 258, 259, 260, 261, 262, 263, 264, 265, 266, 267, 268, 269, 270, 271, 272, 273, 274, 275, 276, 277, 278, 279, 280, 281, 282, 283, 284, 285, 286, 287, 288, 289, 290, 291, 292, 293, 294, 295, 296, 297, 298, 299, 300, 301, 302, 303, 304, 305, 306, 307, 308, 309, 310, 311, 312, 313, 314, 315, 316, 317, 318, 319, 320, 321, 322, 323, 324, 325, 326, 327, 328, 329, 330, 331, 332, 333, 334, 335, 336, 337, 338, 339, 340, 341, 342, 343, 344, 345, 346, 347, 348, 349, 350, 351, 352, 353, 354, 355, 356, 357, 358, 359, 360, 361, 362, 363, 364, 365, 366, 367, 368, 369, 370, 371, 372, 373, 374, 375, 376, 377, 378, 379, 380, 381, 382, 383, 384, 385, 386, 387, 388, 389, 390, 391, 392, 393, 394, 395, 396, 397, 398, 399, 400, 401, 402, 403, 404, 405, 406, 407, 408, 409, 410, 411, 412, 413, 414, 415, 416, 417, 418, 419, 420, 421, 422, 423, 424],
      "AcquisitionTime": ["132457.977500", "132459.467500", "132500.957500", "132502.447500", "132503.937500", "132505.427500", "132506.917500", "132508.407500", "132509.897500", "132511.387500", "132512.877500", "132514.367500", "132515.857500", "132517.347500", "132518.837500", "132520.327500", "132521.817500", "132523.307500", "132524.797500", "132526.287500", "132527.777500", "132529.267500", "132530.757500", "132532.247500", "132533.737500", "132535.227500", "132536.717500", "132538.207500", "132539.697500", "132541.187500", "132542.677500", "132544.167500", "132545.657500", "132547.147500", "132548.637500", "132550.127500", "132551.617500", "132553.107500", "132554.597500", "132556.087500", "132557.577500", "132559.067500", "132600.557500", "132602.047500", "132603.537500", "132605.027500", "132606.517500", "132608.007500", "132609.497500", "132610.987500", "132612.477500", "132613.967500", "132615.457500", "132616.947500", "132618.437500", "132619.927500", "132621.417500", "132622.907500", "132624.397500", "132625.887500", "132627.377500", "132628.867500", "132630.357500", "132631.847500", "132633.337500", "132634.827500", "132636.317500", "132637.807500", "132639.297500", "132640.787500", "132642.277500", "132643.767500", "132645.257500", "132646.747500", "132648.237500", "132649.727500", "132651.217500", "132652.707500", "132654.197500", "132655.687500", "132657.177500", "132658.667500", "132700.157500", "132701.647500", "132703.137500", "132704.627500", "132706.117500", "132707.607500", "132709.097500", "132710.587500", "132712.077500", "132713.567500", "132715.057500", "132716.547500", "132718.037500", "132719.527500", "132721.017500", "132722.507500", "132723.997500", "132725.487500", "132726.977500", "132728.467500", "132729.957500", "132731.447500", "132732.937500", "132734.427500", "132735.917500", "132737.407500", "132738.897500", "132740.387500", "132741.877500", "132743.367500", "132744.857500", "132746.347500", "132747.837500", "132749.327500", "132750.817500", "132752.307500", "132753.797500", "132755.287500", "132756.777500", "132758.267500", "132759.757500", "132801.247500", "132802.737500", "132804.227500", "132805.717500", "132807.207500", "132808.697500", "132810.187500", "132811.677500", "132813.167500", "132814.657500", "132816.147500", "132817.637500", "132819.127500", "132820.617500", "132822.107500", "132823.597500", "132825.087500", "132826.577500", "132828.067500", "132829.557500", "132831.047500", "132832.537500", "132834.027500", "132835.517500", "132837.007500", "132838.497500", "132839.987500", "132841.477500", "132842.967500", "132844.457500", "132845.947500", "132847.437500", "132848.927500", "132850.417500", "132851.907500", "132853.397500", "132854.887500", "132856.377500", "132857.867500", "132859.357500", "132900.847500", "132902.337500", "132903.827500", "132905.317500", "132906.807500", "132908.297500", "132909.787500", "132911.277500", "132912.767500", "132914.257500", "132915.747500", "132917.237500", "132918.727500", "132920.217500", "132921.707500", "132923.197500", "132924.687500", "132926.177500", "132927.667500", "132929.157500", "132930.647500", "132932.137500", "132933.627500", "132935.117500", "132936.607500", "132938.097500", "132939.587500", "132941.077500", "132942.567500", "132944.057500", "132945.547500", "132947.037500", "132948.527500", "132950.017500", "132951.507500", "132952.997500", "132954.487500", "132955.977500", "132957.467500", "132958.957500", "133000.447500", "133001.937500", "133003.427500", "133004.917500", "133006.407500", "133007.897500", "133009.387500", "133010.877500", "133012.367500", "133013.857500", "133015.347500", "133016.837500", "133018.327500", "133019.817500", "133021.307500", "133022.797500", "133024.287500", "133025.777500", "133027.267500", "133028.757500", "133030.247500", "133031.737500", "133033.227500", "133034.717500", "133036.207500", "133037.697500", "133039.187500", "133040.677500", "133042.167500", "133043.657500", "133045.147500", "133046.637500", "133048.127500", "133049.617500", "133051.107500", "133052.597500", "133054.087500", "133055.577500", "133057.067500", "133058.557500", "133100.047500", "133101.537500", "133103.027500", "133104.517500", "133106.007500", "133107.497500", "133108.987500", "133110.477500", "133111.967500", "133113.457500", "133114.947500", "133116.437500", "133117.927500", "133119.417500", "133120.907500", "133122.397500", "133123.887500", "133125.377500", "133126.867500", "133128.357500", "133129.847500", "133131.337500", "133132.827500", "133134.317500", "133135.807500", "133137.297500", "133138.787500", "133140.277500", "133141.767500", "133143.257500", "133144.747500", "133146.237500", "133147.727500", "133149.217500", "133150.707500", "133152.197500", "133153.687500", "133155.177500", "133156.667500", "133158.157500", "133159.647500", "133201.137500", "133202.627500", "133204.117500", "133205.607500", "133207.097500", "133208.587500", "133210.077500", "133211.567500", "133213.057500", "133214.547500", "133216.037500", "133217.527500", "133219.017500", "133220.507500", "133221.997500", "133223.487500", "133224.977500", "133226.467500", "133227.957500", "133229.447500", "133230.937500", "133232.427500", "133233.917500", "133235.407500", "133236.897500", "133238.387500", "133239.877500", "133241.367500", "133242.857500", "133244.347500", "133245.837500", "133247.327500", "133248.817500", "133250.307500", "133251.797500", "133253.287500", "133254.777500", "133256.267500", "133257.757500", "133259.247500", "133300.737500", "133302.227500", "133303.717500", "133305.207500", "133306.697500", "133308.187500", "133309.677500", "133311.167500", "133312.657500", "133314.147500", "133315.637500", "133317.127500", "133318.617500", "133320.107500", "133321.597500", "133323.087500", "133324.577500", "133326.067500", "133327.557500", "133329.047500", "133330.537500", "133332.027500", "133333.517500", "133335.007500", "133336.497500", "133337.987500", "133339.477500", "133340.967500", "133342.457500", "133343.947500", "133345.437500", "133346.927500", "133348.417500", "133349.907500", "133351.397500", "133352.887500", "133354.377500", "133355.867500", "133357.357500", "133358.847500", "133400.337500", "133401.827500", "133403.317500", "133404.807500", "133406.297500", "133407.787500", "133409.277500", "133410.767500", "133412.257500", "133413.747500", "133415.237500", "133416.727500", "133418.217500", "133419.707500", "133421.197500", "133422.687500", "133424.177500", "133425.667500", "133427.157500", "133428.647500", "133430.137500", "133431.627500", "133433.117500", "133434.607500", "133436.097500", "133437.587500", "133439.077500", "133440.567500", "133442.057500", "133443.547500", "133445.037500", "133446.527500", "133448.017500", "133449.507500", "133450.997500", "133452.487500", "133453.977500", "133455.467500", "133456.957500", "133458.447500", "133459.937500", "133501.427500", "133502.917500", "133504.407500", "133505.897500", "133507.387500", "133508.877500", "133510.367500", "133511.857500", "133513.347500", "133514.837500", "133516.327500", "133517.817500", "133519.307500", "133520.797500", "133522.287500", "133523.777500", "133525.267500", "133526.757500", "133528.247500"],
      "ContentTime": ["132614.464000", "132614.467000", "132614.470000", "132614.473000", "132614.476000", "132614.482000", "132614.485000", "132614.488000", "132614.491000", "132614.494000", "132614.497000", "132614.500000", "132614.503000", "132614.505000", "132614.508000", "132614.511000", "132614.514000", "132614.517000", "132614.520000", "132614.523000", "132614.526000", "132614.529000", "132614.532000", "132614.535000", "132634.435000", "132634.438000", "132634.441000", "132634.444000", "132634.447000", "132634.450000", "132634.453000", "132634.456000", "132634.458000", "132634.461000", "132634.464000", "132634.467000", "132634.470000", "132634.473000", "132634.482000", "132634.485000", "132634.488000", "132634.491000", "132634.494000", "132634.497000", "132654.435000", "132654.438000", "132654.441000", "132654.444000", "132654.447000", "132654.450000", "132654.453000", "132654.455000", "132654.458000", "132654.461000", "132654.471000", "132654.474000", "132654.477000", "132654.480000", "132654.483000", "132654.486000", "132654.489000", "132654.492000", "132654.495000", "132654.498000", "132714.435000", "132714.438000", "132714.458000", "132714.461000", "132714.464000", "132714.467000", "132714.470000", "132714.473000", "132714.476000", "132714.479000", "132714.482000", "132714.485000", "132714.487000", "132714.490000", "132714.493000", "132714.496000", "132714.499000", "132714.502000", "132714.505000", "132714.508000", "132734.435000", "132734.438000", "132734.441000", "132734.444000", "132734.447000", "132734.450000", "132734.453000", "132734.456000", "132734.459000", "132734.461000", "132734.464000", "132734.467000", "132734.470000", "132734.473000", "132734.476000", "132734.479000", "132734.482000", "132734.485000", "132734.488000", "132734.491000", "132814.435000", "132814.438000", "132814.441000", "132814.444000", "132814.447000", "132814.450000", "132814.453000", "132814.455000", "132814.458000", "132814.461000", "132814.464000", "132814.467000", "132814.487000", "132814.490000", "132814.493000", "132814.496000", "132814.499000", "132814.502000", "132814.505000", "132814.508000", "132814.510000", "132814.513000", "132814.516000", "132814.519000", "132814.522000", "132814.525000", "132814.528000", "132854.435000", "132854.438000", "132854.441000", "132854.444000", "132854.447000", "132854.450000", "132854.453000", "132854.456000", "132854.459000", "132854.461000", "132854.464000", "132854.467000", "132854.470000", "132854.473000", "132854.476000", "132854.479000", "132854.482000", "132854.485000", "132854.488000", "132854.491000", "132854.493000", "132854.496000", "132854.499000", "132854.502000", "132854.505000", "132854.508000", "132854.511000", "132934.435000", "132934.438000", "132934.441000", "132934.444000", "132934.447000", "132934.450000", "132934.453000", "132934.456000", "132934.459000", "132934.461000", "132934.464000", "132934.467000", "132934.470000", "132934.473000", "132934.476000", "132934.479000", "132934.482000", "132934.485000", "132934.488000", "132934.491000", "132934.494000", "132934.497000", "132934.500000", "132934.502000", "132934.505000", "132934.508000", "132934.511000", "133014.435000", "133014.438000", "133014.441000", "133014.444000", "133014.447000", "133014.450000", "133014.453000", "133014.456000", "133014.459000", "133014.461000", "133014.464000", "133014.478000", "133014.481000", "133014.484000", "133014.487000", "133014.490000", "133014.493000", "133014.495000", "133014.498000", "133014.501000", "133014.504000", "133014.507000", "133014.510000", "133014.513000", "133014.516000", "133014.519000", "133014.522000", "133054.435000", "133054.438000", "133054.441000", "133054.444000", "133054.447000", "133054.450000", "133054.453000", "133054.456000", "133054.459000", "133054.462000", "133054.465000", "133054.468000", "133054.470000", "133054.473000", "133054.476000", "133054.479000", "133054.482000", "133054.485000", "133054.488000", "133054.491000", "133054.494000", "133054.497000", "133054.500000", "133054.503000", "133054.506000", "133054.508000", "133054.511000", "133134.435000", "133134.438000", "133134.441000", "133134.444000", "133134.447000", "133134.450000", "133134.453000", "133134.456000", "133134.459000", "133134.462000", "133134.466000", "133134.469000", "133134.472000", "133134.475000", "133134.478000", "133134.481000", "133134.484000", "133134.487000", "133134.489000", "133134.492000", "133134.495000", "133134.498000", "133134.501000", "133134.504000", "133134.507000", "133134.510000", "133214.435000", "133214.438000", "133214.441000", "133214.444000", "133214.447000", "133214.450000", "133214.453000", "133214.456000", "133214.459000", "133214.462000", "133214.465000", "133214.468000", "133214.471000", "133214.474000", "133214.477000", "133214.479000", "133214.482000", "133214.485000", "133214.488000", "133214.491000", "133214.494000", "133214.497000", "133214.500000", "133214.503000", "133214.506000", "133214.509000", "133214.512000", "133254.435000", "133254.438000", "133254.441000", "133254.444000", "133254.447000", "133254.450000", "133254.453000", "133254.456000", "133254.459000", "133254.462000", "133254.465000", "133254.467000", "133254.470000", "133254.473000", "133254.476000", "133254.479000", "133254.482000", "133254.485000", "133254.488000", "133254.491000", "133254.494000", "133254.510000", "133254.513000", "133254.516000", "133254.519000", "133254.521000", "133254.524000", "133334.435000", "133334.438000", "133334.441000", "133334.444000", "133334.447000", "133334.450000", "133334.453000", "133334.456000", "133334.459000", "133334.462000", "133334.466000", "133334.469000", "133334.471000", "133334.474000", "133334.477000", "133334.480000", "133334.483000", "133334.486000", "133334.490000", "133334.493000", "133334.496000", "133334.499000", "133334.502000", "133334.505000", "133334.508000", "133334.511000", "133334.514000", "133414.435000", "133414.438000", "133414.441000", "133414.444000", "133414.447000", "133414.450000", "133414.453000", "133414.456000", "133414.459000", "133414.462000", "133414.465000", "133414.467000", "133414.470000", "133414.473000", "133414.476000", "133414.479000", "133414.482000", "133414.485000", "133414.488000", "133414.491000", "133414.494000", "133414.497000", "133414.500000", "133414.503000", "133414.506000", "133414.509000", "133414.512000", "133454.435000", "133454.438000", "133454.441000", "133454.444000", "133454.447000", "133454.450000", "133454.453000", "133454.456000", "133454.459000", "133454.462000", "133454.465000", "133454.468000", "133454.470000", "133454.473000", "133454.476000", "133454.479000", "133454.482000", "133454.485000", "133454.488000", "133454.491000", "133454.494000", "133454.497000", "133454.500000", "133454.503000", "133454.505000", "133454.508000", "133454.511000", "133531.325000", "133531.329000", "133531.333000", "133531.337000", "133531.340000", "133531.344000", "133531.347000", "133531.350000", "133531.353000", "133531.356000", "133531.359000", "133531.362000", "133531.365000", "133531.368000", "133531.371000", "133531.374000", "133531.377000", "133531.380000", "133531.383000", "133531.386000", "133531.389000", "133531.391000", "133531.394000", "133531.397000"],
      "InstanceCreationTime": ["132614.464000", "132614.467000", "132614.470000", "132614.473000", "132614.476000", "132614.482000", "132614.485000", "132614.488000", "132614.491000", "132614.494000", "132614.497000", "132614.500000", "132614.503000", "132614.505000", "132614.508000", "132614.511000", "132614.514000", "132614.517000", "132614.520000", "132614.523000", "132614.526000", "132614.529000", "132614.532000", "132614.535000", "132634.435000", "132634.438000", "132634.441000", "132634.444000", "132634.447000", "132634.450000", "132634.453000", "132634.456000", "132634.458000", "132634.461000", "132634.464000", "132634.467000", "132634.470000", "132634.473000", "132634.482000", "132634.485000", "132634.488000", "132634.491000", "132634.494000", "132634.497000", "132654.435000", "132654.438000", "132654.441000", "132654.444000", "132654.447000", "132654.450000", "132654.453000", "132654.455000", "132654.458000", "132654.461000", "132654.471000", "132654.474000", "132654.477000", "132654.480000", "132654.483000", "132654.486000", "132654.489000", "132654.492000", "132654.495000", "132654.498000", "132714.435000", "132714.438000", "132714.458000", "132714.461000", "132714.464000", "132714.467000", "132714.470000", "132714.473000", "132714.476000", "132714.479000", "132714.482000", "132714.485000", "132714.487000", "132714.490000", "132714.493000", "132714.496000", "132714.499000", "132714.502000", "132714.505000", "132714.508000", "132734.435000", "132734.438000", "132734.441000", "132734.444000", "132734.447000", "132734.450000", "132734.453000", "132734.456000", "132734.459000", "132734.461000", "132734.464000", "132734.467000", "132734.470000", "132734.473000", "132734.476000", "132734.479000", "132734.482000", "132734.485000", "132734.488000", "132734.491000", "132814.435000", "132814.438000", "132814.441000", "132814.444000", "132814.447000", "132814.450000", "132814.453000", "132814.455000", "132814.458000", "132814.461000", "132814.464000", "132814.467000", "132814.487000", "132814.490000", "132814.493000", "132814.496000", "132814.499000", "132814.502000", "132814.505000", "132814.508000", "132814.510000", "132814.513000", "132814.516000", "132814.519000", "132814.522000", "132814.525000", "132814.528000", "132854.435000", "132854.438000", "132854.441000", "132854.444000", "132854.447000", "132854.450000", "132854.453000", "132854.456000", "132854.459000", "132854.461000", "132854.464000", "132854.467000", "132854.470000", "132854.473000", "132854.476000", "132854.479000", "132854.482000", "132854.485000", "132854.488000", "132854.491000", "132854.493000", "132854.496000", "132854.499000", "132854.502000", "132854.505000", "132854.508000", "132854.511000", "132934.435000", "132934.438000", "132934.441000", "132934.444000", "132934.447000", "132934.450000", "132934.453000", "132934.456000", "132934.459000", "132934.461000", "132934.464000", "132934.467000", "132934.470000", "132934.473000", "132934.476000", "132934.479000", "132934.482000", "132934.485000", "132934.488000", "132934.491000", "132934.494000", "132934.497000", "132934.500000", "132934.502000", "132934.505000", "132934.508000", "132934.511000", "133014.435000", "133014.438000", "133014.441000", "133014.444000", "133014.447000", "133014.450000", "133014.453000", "133014.456000", "133014.459000", "133014.461000", "133014.464000", "133014.478000", "133014.481000", "133014.484000", "133014.487000", "133014.490000", "133014.493000", "133014.495000", "133014.498000", "133014.501000", "133014.504000", "133014.507000", "133014.510000", "133014.513000", "133014.516000", "133014.519000", "133014.522000", "133054.435000", "133054.438000", "133054.441000", "133054.444000", "133054.447000", "133054.450000", "133054.453000", "133054.456000", "133054.459000", "133054.462000", "133054.465000", "133054.468000", "133054.470000", "133054.473000", "133054.476000", "133054.479000", "133054.482000", "133054.485000", "133054.488000", "133054.491000", "133054.494000", "133054.497000", "133054.500000", "133054.503000", "133054.506000", "133054.508000", "133054.511000", "133134.435000", "133134.438000", "133134.441000", "133134.444000", "133134.447000", "133134.450000", "133134.453000", "133134.456000", "133134.459000", "133134.462000", "133134.466000", "133134.469000", "133134.472000", "133134.475000", "133134.478000", "133134.481000", "133134.484000", "133134.487000", "133134.489000", "133134.492000", "133134.495000", "133134.498000", "133134.501000", "133134.504000", "133134.507000", "133134.510000", "133214.435000", "133214.438000", "133214.441000", "133214.444000", "133214.447000", "133214.450000", "133214.453000", "133214.456000", "133214.459000", "133214.462000", "133214.465000", "133214.468000", "133214.471000", "133214.474000", "133214.477000", "133214.479000", "133214.482000", "133214.485000", "133214.488000", "133214.491000", "133214.494000", "133214.497000", "133214.500000", "133214.503000", "133214.506000", "133214.509000", "133214.512000", "133254.435000", "133254.438000", "133254.441000", "133254.444000", "133254.447000", "133254.450000", "133254.453000", "133254.456000", "133254.459000", "133254.462000", "133254.465000", "133254.467000", "133254.470000", "133254.473000", "133254.476000", "133254.479000", "133254.482000", "133254.485000", "133254.488000", "133254.491000", "133254.494000", "133254.510000", "133254.513000", "133254.516000", "133254.519000", "133254.521000", "133254.524000", "133334.435000", "133334.438000", "133334.441000", "133334.444000", "133334.447000", "133334.450000", "133334.453000", "133334.456000", "133334.459000", "133334.462000", "133334.466000", "133334.469000", "133334.471000", "133334.474000", "133334.477000", "133334.480000", "133334.483000", "133334.486000", "133334.490000", "133334.493000", "133334.496000", "133334.499000", "133334.502000", "133334.505000", "133334.508000", "133334.511000", "133334.514000", "133414.435000", "133414.438000", "133414.441000", "133414.444000", "133414.447000", "133414.450000", "133414.453000", "133414.456000", "133414.459000", "133414.462000", "133414.465000", "133414.467000", "133414.470000", "133414.473000", "133414.476000", "133414.479000", "133414.482000", "133414.485000", "133414.488000", "133414.491000", "133414.494000", "133414.497000", "133414.500000", "133414.503000", "133414.506000", "133414.509000", "133414.512000", "133454.435000", "133454.438000", "133454.441000", "133454.444000", "133454.447000", "133454.450000", "133454.453000", "133454.456000", "133454.459000", "133454.462000", "133454.465000", "133454.468000", "133454.470000", "133454.473000", "133454.476000", "133454.479000", "133454.482000", "133454.485000", "133454.488000", "133454.491000", "133454.494000", "133454.497000", "133454.500000", "133454.503000", "133454.505000", "133454.508000", "133454.511000", "133531.325000", "133531.329000", "133531.333000", "133531.337000", "133531.340000", "133531.344000", "133531.347000", "133531.350000", "133531.353000", "133531.356000", "133531.359000", "133531.362000", "133531.365000", "133531.368000", "133531.371000", "133531.374000", "133531.377000", "133531.380000", "133531.383000", "133531.386000", "133531.389000", "133531.391000", "133531.394000", "133531.397000"],
