{
  "AcquisitionMatrixPE": 104,
  "AcquisitionNumber": 1,
  "AcquisitionTime": "13:36:2.740000",
  "BandwidthPerPixelPhaseEncode": 17.17,
  "BaseResolution": 104,
  "BodyPartExamined": "BRAIN",
  "CoilString": "HC1-7;NC1_2",
  "ConsistencyInfo": "N4_VE11C_LATEST_20160120",
  "ConversionSoftware": "dcm2niix",
  "ConversionSoftwareVersion": "v1.0.20190902",
  "DerivedVendorReportedEchoSpacing": 0.000560011,
  "DeviceSerialNumber": "167006",
  "DwellTime": 2.1e-06,
  "EchoTime": 0.037,
  "EchoTrainLength": 104,
  "EffectiveEchoSpacing": 0.000560011,
  "FlipAngle": 52,
  "ImageComments": "Unaliased_MB4_PE3_LB",
  "ImageOrientationPatientDICOM": [0.999054, 0.0164959, -0.0402344, -0.0261611, 0.967086, -0.253102],
  "ImageType": [
    "ORIGINAL",
    "PRIMARY",
    "M",
    "MB",
    "ND",
    "MOSAIC"
],
  "ImagingFrequency": 123.259,
  "InPlanePhaseEncodingDirectionDICOM": "COL",
  "InstitutionAddress": "Chemin_Queen-Mary_4565_Montreal_District_CA_H3W_1W5",
  "InstitutionName": "IUGM",
  "InstitutionalDepartmentName": "Department",
  "MRAcquisitionType": "2D",
  "MagneticFieldStrength": 3,
  "Manufacturer": "Siemens",
  "ManufacturersModelName": "Prisma_fit",
  "Modality": "MR",
  "MultibandAccelerationFactor": 4,
  "PartialFourier": 1,
  "PatientPosition": "HFS",
  "PercentPhaseFOV": 100,
  "PhaseEncodingDirection": "j",
  "PhaseEncodingSteps": 104,
  "PhaseResolution": 1,
  "PixelBandwidth": 2290,
  "ProcedureStepDescription": "games_shinobi",
  "ProtocolName": "func_task-shinobi_run-3",
  "PulseSequenceDetails": "%CustomerSeq%_cmrr_mbep2d_bold",
  "ReceiveCoilActiveElements": "HC1-7;NC1,2",
  "ReceiveCoilName": "HeadNeck_64",
  "ReconMatrixPE": 104,
  "RepetitionTime": 1.49,
  "SAR": 0.0138557,
  "ScanOptions": "FS",
  "ScanningSequence": "EP",
  "SequenceName": "epfid2d1_104",
  "SequenceVariant": "SK_SS",
  "SeriesDescription": "func_task-shinobi_run-3",
  "SeriesNumber": 13,
  "ShimSetting": [612, -7245, -8837, 599, -22, -269, -44, 66],
  "SliceThickness": 2,
  "SliceTiming": [0, 0.7825, 0.0975, 0.88, 0.195, 0.98, 0.2925, 1.0775, 0.3925, 1.175, 0.49, 1.2725, 0.5875, 1.37, 0.685, 0, 0.7825, 0.0975, 0.88, 0.195, 0.98, 0.2925, 1.0775, 0.3925, 1.175, 0.49, 1.2725, 0.5875, 1.37, 0.685, 0, 0.7825, 0.0975, 0.88, 0.195, 0.98, 0.2925, 1.0775, 0.3925, 1.175, 0.49, 1.2725, 0.5875, 1.37, 0.685, 0, 0.7825, 0.0975, 0.88, 0.195, 0.98, 0.2925, 1.0775, 0.3925, 1.175, 0.49, 1.2725, 0.5875, 1.37, 0.685],
  "SoftwareVersions": "syngo_MR_E11",
  "SpacingBetweenSlices": 2,
  "StationName": "MRC35049",
  "TaskName": "shinobi",
  "TotalReadoutTime": 0.0576811,
  "TxRefAmp": 217.75,
  "WipMemBlock": "6744c014-2c6d-4f1e-bbb7-2765066ef060||Sequence: R016 ve11c/master r/e634e98; Dec 19 2017 11:00:25 by eja",
  "dcmmeta_affine": [
    [-1.998108148574829, -0.052322279661893845, -0.06946998834609985, 107.97773742675781],
    [-0.03299189731478691, 1.9341719150543213, -0.5078293681144714, -70.97309112548828],
    [-0.08046884834766388, 0.5062030553817749, 1.933205485343933, -55.615753173828125],
    [0.0, 0.0, 0.0, 1.0]
],
  "dcmmeta_reorient_transform": [
    [0.0, -1.0, 0.0, 103.0],
    [1.0, 0.0, 0.0, 0.0],
    [0.0, 0.0, 1.0, 0.0],
    [0.0, 0.0, 0.0, 1.0]
],
  "dcmmeta_shape": [104, 104, 60, 487],
  "dcmmeta_slice_dim": 2,
  "dcmmeta_version": 0.6,
  "global": {
    "const": {
      "AcquisitionMatrix": [104, 0, 0, 104],
      "AngioFlag": "N",
      "BitsAllocated": 16,
      "BitsStored": 16,
      "BodyPartExamined": "BRAIN",
      "Columns": 832,
      "EchoNumbers": 1,
      "EchoTime": 37.0,
      "EchoTrainLength": 104,
      "FlipAngle": 52.0,
      "HighBit": 15,
      "ImageOrientationPatient": [0.99905409001791, 0.01649594931367, -0.0402344240015, -0.026161140351, 0.96708594181605, -0.253101512989],
      "ImagePositionPatient": [-810.85460795865, -844.29423116773, 210.07171966879],
      "ImageType": [
        "ORIGINAL",
        "PRIMARY",
        "M",
        "MB",
        "ND",
        "MOSAIC"
],
      "ImagedNucleus": "1H",
      "ImagingFrequency": 123.259004,
      "InPlanePhaseEncodingDirection": "COL",
      "MRAcquisitionType": "2D",
      "MagneticFieldStrength": 3.0,
      "Manufacturer": "SIEMENS",
      "ManufacturerModelName": "Prisma_fit",
      "Modality": "MR",
      "NumberOfAverages": 1.0,
      "NumberOfPhaseEncodingSteps": 104,
      "PercentPhaseFieldOfView": 100.0,
      "PercentSampling": 100.0,
      "PerformedProcedureStepStartTime": "125444.594000",
      "PhotometricInterpretation": "MONOCHROME2",
      "PixelBandwidth": 2290.0,
      "PixelRepresentation": 0,
      "PixelSpacing": [2.0, 2.0],
      "ProtocolName": "func_task-shinobi_run-3",
      "RepetitionTime": 1490.0,
      "Rows": 832,
      "SAR": 0.01385568052084,
      "SamplesPerPixel": 1,
      "ScanOptions": "FS",
      "ScanningSequence": "EP",
      "SequenceName": "epfid2d1_104",
      "SequenceVariant": [
        "SK",
        "SS"
],
      "SeriesDescription": "func_task-shinobi_run-3",
      "SeriesNumber": 13,
      "SeriesTime": "133731.161000",
      "SliceLocation": -39.487836013883,
      "SliceThickness": 2.0,
      "SmallestImagePixelValue": 0,
      "SoftwareVersions": "syngo MR E11",
      "SpacingBetweenSlices": 1.9999999895493,
      "SpecificCharacterSet": "ISO_IR 100",
      "StudyID": "1",
      "StudyTime": "125444.302000",
      "TransmitCoilName": "Body",
      "VariableFlipAngleFlag": "N",
      "WindowCenterWidthExplanation": "Algo1",
      "dBdt": 0.0},
    "slices": {}
  },
  "time": {
    "samples": {
      "AcquisitionNumber": [1, 2, 3, 4, 5, 6, 7, 8, 9, 10, 11, 12, 13, 14, 15, 16, 17, 18, 19, 20, 21, 22, 23, 24, 25, 26, 27, 28, 29, 30, 31, 32, 33, 34, 35, 36, 37, 38, 39, 40, 41, 42, 43, 44, 45, 46, 47, 48, 49, 50, 51, 52, 53, 54, 55, 56, 57, 58, 59, 60, 61, 62, 63, 64, 65, 66, 67, 68, 69, 70, 71, 72, 73, 74, 75, 76, 77, 78, 79, 80, 81, 82, 83, 84, 85, 86, 87, 88, 89, 90, 91, 92, 93, 94, 95, 96, 97, 98, 99, 100, 101, 102, 103, 104, 105, 106, 107, 108, 109, 110, 111, 112, 113, 114, 115, 116, 117, 118, 119, 120, 121, 122, 123, 124, 125, 126, 127, 128, 129, 130, 131, 132, 133, 134, 135, 136, 137, 138, 139, 140, 141, 142, 143, 144, 145, 146, 147, 148, 149, 150, 151, 152, 153, 154, 155, 156, 157, 158, 159, 160, 161, 162, 163, 164, 165, 166, 167, 168, 169, 170, 171, 172, 173, 174, 175, 176, 177, 178, 179, 180, 181, 182, 183, 184, 185, 186, 187, 188, 189, 190, 191, 192, 193, 194, 195, 196, 197, 198, 199, 200, 201, 202, 203, 204, 205, 206, 207, 208, 209, 210, 211, 212, 213, 214, 215, 216, 217, 218, 219, 220, 221, 222, 223, 224, 225, 226, 227, 228, 229, 230, 231, 232, 233, 234, 235, 236, 237, 238, 239, 240, 241, 242, 243, 244, 245, 246, 247, 248, 249, 250, 251, 252, 253, 254, 255, 256, 257, 258, 259, 260, 261, 262, 263, 264, 265, 266, 267, 268, 269, 270, 271, 272, 273, 274, 275, 276, 277, 278, 279, 280, 281, 282, 283, 284, 285, 286, 287, 288, 289, 290, 291, 292, 293, 294, 295, 296, 297, 298, 299, 300, 301, 302, 303, 304, 305, 306, 307, 308, 309, 310, 311, 312, 313, 314, 315, 316, 317, 318, 319, 320, 321, 322, 323, 324, 325, 326, 327, 328, 329, 330, 331, 332, 333, 334, 335, 336, 337, 338, 339, 340, 341, 342, 343, 344, 345, 346, 347, 348, 349, 350, 351, 352, 353, 354, 355, 356, 357, 358, 359, 360, 361, 362, 363, 364, 365, 366, 367, 368, 369, 370, 371, 372, 373, 374, 375, 376, 377, 378, 379, 380, 381, 382, 383, 384, 385, 386, 387, 388, 389, 390, 391, 392, 393, 394, 395, 396, 397, 398, 399, 400, 401, 402, 403, 404, 405, 406, 407, 408, 409, 410, 411, 412, 413, 414, 415, 416, 417, 418, 419, 420, 421, 422, 423, 424, 425, 426, 427, 428, 429, 430, 431, 432, 433, 434, 435, 436, 437, 438, 439, 440, 441, 442, 443, 444, 445, 446, 447, 448, 449, 450, 451, 452, 453, 454, 455, 456, 457, 458, 459, 460, 461, 462, 463, 464, 465, 466, 467, 468, 469, 470, 471, 472, 473, 474, 475, 476, 477, 478, 479, 480, 481, 482, 483, 484, 485, 486, 487],
      "AcquisitionTime": ["133602.740000", "133604.230000", "133605.720000", "133607.210000", "133608.700000", "133610.190000", "133611.680000", "133613.170000", "133614.660000", "133616.150000", "133617.640000", "133619.130000", "133620.620000", "133622.110000", "133623.600000", "133625.090000", "133626.580000", "133628.070000", "133629.560000", "133631.050000", "133632.540000", "133634.030000", "133635.520000", "133637.010000", "133638.500000", "133639.990000", "133641.480000", "133642.970000", "133644.460000", "133645.950000", "133647.440000", "133648.930000", "133650.420000", "133651.910000", "133653.400000", "133654.890000", "133656.380000", "133657.870000", "133659.360000", "133700.850000", "133702.340000", "133703.830000", "133705.320000", "133706.810000", "133708.300000", "133709.790000", "133711.280000", "133712.770000", "133714.260000", "133715.750000", "133717.240000", "133718.730000", "133720.220000", "133721.710000", "133723.200000", "133724.690000", "133726.180000", "133727.670000", "133729.160000", "133730.650000", "133732.140000", "133733.630000", "133735.120000", "133736.610000", "133738.100000", "133739.590000", "133741.080000", "133742.570000", "133744.060000", "133745.550000", "133747.040000", "133748.530000", "133750.020000", "133751.510000", "133753.000000", "133754.490000", "133755.980000", "133757.470000", "133758.960000", "133800.450000", "133801.940000", "133803.430000", "133804.920000", "133806.410000", "133807.900000", "133809.390000", "133810.880000", "133812.370000", "133813.860000", "133815.350000", "133816.840000", "133818.330000", "133819.820000", "133821.310000", "133822.800000", "133824.290000", "133825.780000", "133827.270000", "133828.760000", "133830.250000", "133831.740000", "133833.230000", "133834.720000", "133836.210000", "133837.700000", "133839.190000", "133840.680000", "133842.170000", "133843.660000", "133845.150000", "133846.640000", "133848.130000", "133849.620000", "133851.110000", "133852.600000", "133854.090000", "133855.580000", "133857.070000", "133858.560000", "133900.050000", "133901.540000", "133903.030000", "133904.520000", "133906.010000", "133907.500000", "133908.990000", "133910.480000", "133911.970000", "133913.460000", "133914.950000", "133916.440000", "133917.930000", "133919.420000", "133920.910000", "133922.400000", "133923.890000", "133925.380000", "133926.870000", "133928.360000", "133929.850000", "133931.340000", "133932.830000", "133934.320000", "133935.810000", "133937.300000", "133938.790000", "133940.280000", "133941.770000", "133943.260000", "133944.750000", "133946.240000", "133947.730000", "133949.220000", "133950.710000", "133952.200000", "133953.690000", "133955.180000", "133956.670000", "133958.160000", "133959.650000", "134001.140000", "134002.630000", "134004.120000", "134005.610000", "134007.100000", "134008.590000", "134010.080000", "134011.570000", "134013.060000", "134014.550000", "134016.040000", "134017.530000", "134019.020000", "134020.510000", "134022.000000", "134023.490000", "134024.980000", "134026.470000", "134027.960000", "134029.450000", "134030.940000", "134032.430000", "134033.920000", "134035.410000", "134036.900000", "134038.390000", "134039.880000", "134041.370000", "134042.860000", "134044.350000", "134045.840000", "134047.330000", "134048.820000", "134050.310000", "134051.800000", "134053.290000", "134054.780000", "134056.270000", "134057.760000", "134059.250000", "134100.740000", "134102.230000", "134103.720000", "134105.210000", "134106.700000", "134108.190000", "134109.680000", "134111.170000", "134112.660000", "134114.150000", "134115.640000", "134117.130000", "134118.620000", "134120.110000", "134121.600000", "134123.090000", "134124.580000", "134126.070000", "134127.560000", "134129.050000", "134130.540000", "134132.030000", "134133.520000", "134135.010000", "134136.500000", "134137.990000", "134139.480000", "134140.970000", "134142.460000", "134143.950000", "134145.440000", "134146.930000", "134148.420000", "134149.910000", "134151.400000", "134152.890000", "134154.380000", "134155.870000", "134157.360000", "134158.850000", "134200.340000", "134201.830000", "134203.320000", "134204.810000", "134206.300000", "134207.790000", "134209.280000", "134210.770000", "134212.260000", "134213.750000", "134215.240000", "134216.730000", "134218.220000", "134219.710000", "134221.200000", "134222.690000", "134224.180000", "134225.670000", "134227.160000", "134228.650000", "134230.140000", "134231.630000", "134233.120000", "134234.610000", "134236.100000", "134237.590000", "134239.080000", "134240.570000", "134242.060000", "134243.550000", "134245.040000", "134246.530000", "134248.020000", "134249.510000", "134251.000000", "134252.490000", "134253.980000", "134255.470000", "134256.960000", "134258.450000", "134259.940000", "134301.430000", "134302.920000", "134304.410000", "134305.900000", "134307.390000", "134308.880000", "134310.370000", "134311.860000", "134313.350000", "134314.840000", "134316.330000", "134317.820000", "134319.310000", "134320.800000", "134322.290000", "134323.780000", "134325.270000", "134326.760000", "134328.250000", "134329.740000", "134331.230000", "134332.720000", "134334.210000", "134335.700000", "134337.190000", "134338.680000", "134340.170000", "134341.660000", "134343.150000", "134344.640000", "134346.130000", "134347.620000", "134349.110000", "134350.600000", "134352.090000", "134353.580000", "134355.070000", "134356.560000", "134358.050000", "134359.540000", "134401.030000", "134402.520000", "134404.010000", "134405.500000", "134406.990000", "134408.480000", "134409.970000", "134411.460000", "134412.950000", "134414.440000", "134415.930000", "134417.420000", "134418.910000", "134420.400000", "134421.890000", "134423.380000", "134424.870000", "134426.360000", "134427.850000", "134429.340000", "134430.830000", "134432.320000", "134433.810000", "134435.300000", "134436.790000", "134438.280000", "134439.770000", "134441.260000", "134442.750000", "134444.240000", "134445.730000", "134447.220000", "134448.710000", "134450.200000", "134451.690000", "134453.180000", "134454.670000", "134456.160000", "134457.650000", "134459.140000", "134500.630000", "134502.120000", "134503.610000", "134505.100000", "134506.590000", "134508.080000", "134509.570000", "134511.060000", "134512.550000", "134514.040000", "134515.530000", "134517.020000", "134518.510000", "134520.000000", "134521.490000", "134522.980000", "134524.470000", "134525.960000", "134527.450000", "134528.940000", "134530.430000", "134531.920000", "134533.410000", "134534.900000", "134536.390000", "134537.880000", "134539.370000", "134540.860000", "134542.350000", "134543.840000", "134545.330000", "134546.820000", "134548.310000", "134549.800000", "134551.290000", "134552.780000", "134554.270000", "134555.760000", "134557.250000", "134558.740000", "134600.230000", "134601.720000", "134603.210000", "134604.700000", "134606.190000", "134607.680000", "134609.170000", "134610.660000", "134612.150000", "134613.640000", "134615.130000", "134616.620000", "134618.110000", "134619.600000", "134621.090000", "134622.580000", "134624.070000", "134625.560000", "134627.050000", "134628.540000", "134630.030000", "134631.520000", "134633.010000", "134634.500000", "134635.990000", "134637.480000", "134638.970000", "134640.460000", "134641.950000", "134643.440000", "134644.930000", "134646.420000", "134647.910000", "134649.400000", "134650.890000", "134652.380000", "134653.870000", "134655.360000", "134656.850000", "134658.340000", "134659.830000", "134701.320000", "134702.810000", "134704.300000", "134705.790000", "134707.280000", "134708.770000", "134710.260000", "134711.750000", "134713.240000", "134714.730000", "134716.220000", "134717.710000", "134719.200000", "134720.690000", "134722.180000", "134723.670000", "134725.160000", "134726.650000", "134728.140000", "134729.630000", "134731.120000", "134732.610000", "134734.100000", "134735.590000", "134737.080000", "134738.570000", "134740.060000", "134741.550000", "134743.040000", "134744.530000", "134746.020000", "134747.510000", "134749.000000", "134750.490000", "134751.980000", "134753.470000", "134754.960000", "134756.450000", "134757.940000", "134759.430000", "134800.920000", "134802.410000", "134803.900000", "134805.390000", "134806.880000"],
      "ContentTime": ["133731.164000", "133731.168000", "133731.171000", "133731.174000", "133731.176000", "133731.179000", "133731.182000", "133731.185000", "133731.188000", "133731.192000", "133731.194000", "133731.197000", "133731.200000", "133731.203000", "133731.206000", "133731.209000", "133731.212000", "133731.218000", "133731.221000", "133731.224000", "133731.227000", "133731.230000", "133731.233000", "133731.236000", "133731.239000", "133731.258000", "133731.261000", "133731.263000", "133731.266000", "133731.269000", "133731.272000", "133731.275000", "133731.278000", "133731.281000", "133751.132000", "133751.135000", "133751.138000", "133751.141000", "133751.144000", "133751.147000", "133751.150000", "133751.153000", "133751.155000", "133751.158000", "133751.161000", "133751.164000", "133751.167000", "133751.170000", "133751.173000", "133751.176000", "133751.179000", "133751.182000", "133751.185000", "133751.187000", "133811.132000", "133811.135000", "133811.138000", "133811.141000", "133811.144000", "133811.146000", "133811.149000", "133811.152000", "133811.155000", "133811.158000", "133811.161000", "133811.164000", "133811.167000", "133811.170000", "133811.173000", "133811.176000", "133811.179000", "133811.182000", "133811.185000", "133811.187000", "133831.133000", "133831.136000", "133831.139000", "133831.142000", "133831.145000", "133831.148000", "133831.150000", "133831.153000", "133831.156000", "133831.159000", "133831.162000", "133831.165000", "133831.177000", "133831.180000", "133831.183000", "133831.185000", "133831.188000", "133831.191000", "133831.194000", "133831.197000", "133911.132000", "133911.135000", "133911.138000", "133911.141000", "133911.144000", "133911.147000", "133911.150000", "133911.153000", "133911.155000", "133911.158000", "133911.161000", "133911.164000", "133911.167000", "133911.170000", "133911.173000", "133911.176000", "133911.179000", "133911.182000", "133911.185000", "133911.188000", "133911.190000", "133911.193000", "133911.196000", "133911.199000", "133911.202000", "133911.205000", "133911.208000", "133911.211000", "133911.214000", "133911.216000", "133911.219000", "133911.222000", "133951.132000", "133951.135000", "133951.138000", "133951.141000", "133951.144000", "133951.147000", "133951.150000", "133951.153000", "133951.156000", "133951.158000", "133951.161000", "133951.164000", "133951.167000", "133951.170000", "133951.173000", "133951.176000", "133951.179000", "133951.182000", "133951.185000", "133951.188000", "133951.191000", "133951.194000", "133951.197000", "133951.200000", "133951.203000", "133951.206000", "134031.132000", "134031.135000", "134031.138000", "134031.141000", "134031.144000", "134031.147000", "134031.168000", "134031.171000", "134031.174000", "134031.177000", "134031.180000", "134031.183000", "134031.186000", "134031.189000", "134031.191000", "134031.194000", "134031.197000", "134031.200000", "134031.203000", "134031.206000", "134031.209000", "134031.212000", "134031.215000", "134031.218000", "134031.221000", "134031.224000", "134031.227000", "134111.132000", "134111.135000", "134111.138000", "134111.141000", "134111.144000", "134111.147000", "134111.150000", "134111.153000", "134111.156000", "134111.158000", "134111.161000", "134111.164000", "134111.167000", "134111.170000", "134111.173000", "134111.176000", "134111.179000", "134111.182000", "134111.185000", "134111.188000", "134111.191000", "134111.193000", "134111.196000", "134111.199000", "134111.202000", "134111.205000", "134111.208000", "134151.132000", "134151.135000", "134151.138000", "134151.141000", "134151.144000", "134151.147000", "134151.150000", "134151.153000", "134151.156000", "134151.159000", "134151.162000", "134151.165000", "134151.168000", "134151.170000", "134151.173000", "134151.190000", "134151.193000", "134151.196000", "134151.199000", "134151.202000", "134151.204000", "134151.207000", "134151.210000", "134151.213000", "134151.216000", "134151.219000", "134151.222000", "134211.132000", "134211.135000", "134211.138000", "134211.141000", "134211.144000", "134211.147000", "134211.150000", "134211.153000", "134211.156000", "134211.159000", "134211.161000", "134211.164000", "134211.167000", "134251.132000", "134251.135000", "134251.138000", "134251.141000", "134251.144000", "134251.147000", "134251.150000", "134251.153000", "134251.156000", "134251.159000", "134251.162000", "134251.165000", "134251.167000", "134251.170000", "134251.173000", "134251.176000", "134251.179000", "134251.182000", "134251.185000", "134251.188000", "134251.191000", "134251.194000", "134251.197000", "134251.200000", "134251.203000", "134251.206000", "134251.209000", "134331.132000", "134331.135000", "134331.138000", "134331.141000", "134331.144000", "134331.147000", "134331.150000", "134331.153000", "134331.156000", "134331.159000", "134331.162000", "134331.165000", "134331.168000", "134331.171000", "134331.174000", "134331.177000", "134331.179000", "134331.182000", "134331.185000", "134331.188000", "134331.191000", "134331.194000", "134331.197000", "134331.200000", "134331.203000", "134331.206000", "134331.209000", "134411.132000", "134411.135000", "134411.138000", "134411.141000", "134411.144000", "134411.147000", "134411.150000", "134411.153000", "134411.156000", "134411.159000", "134411.162000", "134411.164000", "134411.167000", "134411.170000", "134411.173000", "134411.176000", "134411.179000", "134411.182000", "134411.185000", "134411.188000", "134411.191000", "134411.194000", "134411.197000", "134411.200000", "134411.203000", "134411.206000", "134411.209000", "134451.132000", "134451.135000", "134451.138000", "134451.141000", "134451.144000", "134451.147000", "134451.150000", "134451.153000", "134451.156000", "134451.159000", "134451.162000", "134451.165000", "134451.168000", "134451.171000", "134451.174000", "134451.177000", "134451.179000", "134451.182000", "134451.185000", "134451.188000", "134451.191000", "134451.194000", "134451.197000", "134451.200000", "134451.203000", "134451.206000", "134451.209000", "134531.133000", "134531.136000", "134531.139000", "134531.142000", "134531.145000", "134531.148000", "134531.151000", "134531.154000", "134531.157000", "134531.160000", "134531.163000", "134531.166000", "134531.169000", "134531.172000", "134531.175000", "134531.177000", "134531.180000", "134531.183000", "134531.186000", "134531.189000", "134531.192000", "134531.195000", "134531.198000", "134531.201000", "134531.204000", "134531.207000", "134531.210000", "134611.132000", "134611.135000", "134611.139000", "134611.142000", "134611.145000", "134611.148000", "134611.151000", "134611.154000", "134611.156000", "134611.159000", "134611.162000", "134611.179000", "134611.190000", "134611.193000", "134611.196000", "134611.199000", "134611.202000", "134611.205000", "134611.208000", "134611.211000", "134611.213000", "134611.216000", "134611.219000", "134611.222000", "134611.225000", "134611.228000", "134651.132000", "134651.135000", "134651.138000", "134651.141000", "134651.144000", "134651.147000", "134651.150000", "134651.153000", "134651.156000", "134651.159000", "134651.162000", "134651.165000", "134651.168000", "134651.171000", "134651.174000", "134651.177000", "134651.179000", "134651.182000", "134651.185000", "134651.188000", "134651.191000", "134651.194000", "134651.197000", "134651.200000", "134651.203000", "134651.206000", "134651.209000", "134731.132000", "134731.135000", "134731.138000", "134731.141000", "134731.144000", "134731.147000", "134731.150000", "134731.153000", "134731.156000", "134731.159000", "134731.162000", "134731.165000", "134731.168000", "134731.171000", "134731.174000", "134731.177000", "134731.180000", "134731.183000", "134731.186000", "134731.189000", "134731.192000", "134731.195000", "134731.198000", "134731.201000", "134731.204000", "134731.207000", "134731.210000", "134809.709000", "134809.713000", "134809.716000", "134809.719000", "134809.722000", "134809.725000", "134809.728000", "134809.731000", "134809.734000", "134809.737000", "134809.740000", "134809.743000", "134809.746000", "134809.749000", "134809.752000", "134809.755000", "134809.758000", "134809.761000", "134809.764000", "134809.767000", "134809.770000", "134809.773000", "134809.776000", "134809.779000", "134809.782000", "134809.785000"],
