{
  "AcquisitionMatrixPE": 104,
  "AcquisitionNumber": 1,
  "AcquisitionTime": "09:54:52.547500",
  "BandwidthPerPixelPhaseEncode": 17.17,
  "BaseResolution": 104,
  "BodyPartExamined": "BRAIN",
  "CoilString": "HC1-7;NC1_2",
  "ConsistencyInfo": "N4_VE11C_LATEST_20160120",
  "ConversionSoftware": "dcm2niix",
  "ConversionSoftwareVersion": "v1.0.20190902",
  "DerivedVendorReportedEchoSpacing": 0.000560011,
  "DeviceSerialNumber": "167006",
  "DwellTime": 2.1e-06,
  "EchoTime": 0.037,
  "EchoTrainLength": 104,
  "EffectiveEchoSpacing": 0.000560011,
  "FlipAngle": 52,
  "ImageComments": "Unaliased_MB4_PE3_LB",
  "ImageOrientationPatientDICOM": [0.999052, 0.0179121, -0.0396847, -0.0259866, 0.97662, -0.213398],
  "ImageType": [
    "ORIGINAL",
    "PRIMARY",
    "M",
    "MB",
    "ND",
    "MOSAIC"
],
  "ImagingFrequency": 123.259,
  "InPlanePhaseEncodingDirectionDICOM": "COL",
  "InstitutionAddress": "Chemin_Queen-Mary_4565_Montreal_District_CA_H3W_1W5",
  "InstitutionName": "IUGM",
  "InstitutionalDepartmentName": "Department",
  "MRAcquisitionType": "2D",
  "MagneticFieldStrength": 3,
  "Manufacturer": "Siemens",
  "ManufacturersModelName": "Prisma_fit",
  "Modality": "MR",
  "MultibandAccelerationFactor": 4,
  "PartialFourier": 1,
  "PatientPosition": "HFS",
  "PercentPhaseFOV": 100,
  "PhaseEncodingDirection": "j",
  "PhaseEncodingSteps": 104,
  "PhaseResolution": 1,
  "PixelBandwidth": 2290,
  "ProcedureStepDescription": "games_shinobi",
  "ProtocolName": "func_task-shinobi_run-4",
  "PulseSequenceDetails": "%CustomerSeq%_cmrr_mbep2d_bold",
  "ReceiveCoilActiveElements": "HC1-7;NC1,2",
  "ReceiveCoilName": "HeadNeck_64",
  "ReconMatrixPE": 104,
  "RepetitionTime": 1.49,
  "SAR": 0.0260501,
  "ScanOptions": "FS",
  "ScanningSequence": "EP",
  "SequenceName": "epfid2d1_104",
  "SequenceVariant": "SK_SS",
  "SeriesDescription": "func_task-shinobi_run-4",
  "SeriesNumber": 15,
  "ShimSetting": [600, -7255, -8819, 598, -72, -276, 0, 75],
  "SliceThickness": 2,
  "SliceTiming": [0, 0.7825, 0.0975, 0.88, 0.195, 0.98, 0.2925, 1.0775, 0.39, 1.175, 0.49, 1.2725, 0.5875, 1.37, 0.685, 0, 0.7825, 0.0975, 0.88, 0.195, 0.98, 0.2925, 1.0775, 0.39, 1.175, 0.49, 1.2725, 0.5875, 1.37, 0.685, 0, 0.7825, 0.0975, 0.88, 0.195, 0.98, 0.2925, 1.0775, 0.39, 1.175, 0.49, 1.2725, 0.5875, 1.37, 0.685, 0, 0.7825, 0.0975, 0.88, 0.195, 0.98, 0.2925, 1.0775, 0.39, 1.175, 0.49, 1.2725, 0.5875, 1.37, 0.685],
  "SoftwareVersions": "syngo_MR_E11",
  "SpacingBetweenSlices": 2,
  "StationName": "MRC35049",
  "TaskName": "shinobi",
  "TotalReadoutTime": 0.0576811,
  "TxRefAmp": 209.692,
  "WipMemBlock": "b15a21a0-29d0-4ff5-bf25-56c41cc08c3c||Sequence: R016 ve11c/master r/e634e98; Dec 19 2017 11:00:25 by eja",
  "dcmmeta_affine": [
    [-1.998103380203247, -0.05197310820221901, -0.06986884772777557, 107.58321380615234],
    [-0.03582410886883736, 1.9532392024993896, -0.42845475673675537, -73.24242401123047],
    [-0.07936934381723404, 0.42679694294929504, 1.9523178339004517, -44.34123611450195],
    [0.0, 0.0, 0.0, 1.0]
],
  "dcmmeta_reorient_transform": [
    [0.0, -1.0, 0.0, 103.0],
    [1.0, 0.0, 0.0, 0.0],
    [0.0, 0.0, 1.0, 0.0],
    [0.0, 0.0, 0.0, 1.0]
],
  "dcmmeta_shape": [104, 104, 60, 481],
  "dcmmeta_slice_dim": 2,
  "dcmmeta_version": 0.6,
  "global": {
    "const": {
      "AcquisitionMatrix": [104, 0, 0, 104],
      "AngioFlag": "N",
      "BitsAllocated": 16,
      "BitsStored": 16,
      "BodyPartExamined": "BRAIN",
      "Columns": 832,
      "EchoNumbers": 1,
      "EchoTime": 37.0,
      "EchoTrainLength": 104,
      "FlipAngle": 52.0,
      "HighBit": 15,
      "ImageOrientationPatient": [0.9990516929052, 0.01791205472184, -0.0396846720902, -0.025986554885, 0.97661957323626, -0.213398472668],
      "ImagePositionPatient": [-810.62140477851, -851.96023648873, 183.86337704611],
      "ImageType": [
        "ORIGINAL",
        "PRIMARY",
        "M",
        "MB",
        "ND",
        "MOSAIC"
],
      "ImagedNucleus": "1H",
      "ImagingFrequency": 123.258983,
      "InPlanePhaseEncodingDirection": "COL",
      "MRAcquisitionType": "2D",
      "MagneticFieldStrength": 3.0,
      "Manufacturer": "SIEMENS",
      "ManufacturerModelName": "Prisma_fit",
      "Modality": "MR",
      "NumberOfAverages": 1.0,
      "NumberOfPhaseEncodingSteps": 104,
      "PercentPhaseFieldOfView": 100.0,
      "PercentSampling": 100.0,
      "PerformedProcedureStepStartTime": "085853.536000",
      "PhotometricInterpretation": "MONOCHROME2",
      "PixelBandwidth": 2290.0,
      "PixelRepresentation": 0,
      "PixelSpacing": [2.0, 2.0],
      "ProtocolName": "func_task-shinobi_run-4",
      "RepetitionTime": 1490.0,
      "Rows": 832,
      "SAR": 0.02605006927007,
      "SamplesPerPixel": 1,
      "ScanOptions": "FS",
      "ScanningSequence": "EP",
      "SequenceName": "epfid2d1_104",
      "SequenceVariant": [
        "SK",
        "SS"
],
      "SeriesDescription": "func_task-shinobi_run-4",
      "SeriesNumber": 15,
      "SeriesTime": "095554.141000",
      "SliceLocation": -31.351920344529,
      "SliceThickness": 2.0,
      "SmallestImagePixelValue": 0,
      "SoftwareVersions": "syngo MR E11",
      "SpacingBetweenSlices": 2.0000000456311,
      "SpecificCharacterSet": "ISO_IR 100",
      "StudyID": "1",
      "StudyTime": "085853.422000",
      "TransmitCoilName": "Body",
      "VariableFlipAngleFlag": "N",
      "WindowCenterWidthExplanation": "Algo1",
      "dBdt": 0.0},
    "slices": {}
  },
  "time": {
    "samples": {
      "AcquisitionNumber": [1, 2, 3, 4, 5, 6, 7, 8, 9, 10, 11, 12, 13, 14, 15, 16, 17, 18, 19, 20, 21, 22, 23, 24, 25, 26, 27, 28, 29, 30, 31, 32, 33, 34, 35, 36, 37, 38, 39, 40, 41, 42, 43, 44, 45, 46, 47, 48, 49, 50, 51, 52, 53, 54, 55, 56, 57, 58, 59, 60, 61, 62, 63, 64, 65, 66, 67, 68, 69, 70, 71, 72, 73, 74, 75, 76, 77, 78, 79, 80, 81, 82, 83, 84, 85, 86, 87, 88, 89, 90, 91, 92, 93, 94, 95, 96, 97, 98, 99, 100, 101, 102, 103, 104, 105, 106, 107, 108, 109, 110, 111, 112, 113, 114, 115, 116, 117, 118, 119, 120, 121, 122, 123, 124, 125, 126, 127, 128, 129, 130, 131, 132, 133, 134, 135, 136, 137, 138, 139, 140, 141, 142, 143, 144, 145, 146, 147, 148, 149, 150, 151, 152, 153, 154, 155, 156, 157, 158, 159, 160, 161, 162, 163, 164, 165, 166, 167, 168, 169, 170, 171, 172, 173, 174, 175, 176, 177, 178, 179, 180, 181, 182, 183, 184, 185, 186, 187, 188, 189, 190, 191, 192, 193, 194, 195, 196, 197, 198, 199, 200, 201, 202, 203, 204, 205, 206, 207, 208, 209, 210, 211, 212, 213, 214, 215, 216, 217, 218, 219, 220, 221, 222, 223, 224, 225, 226, 227, 228, 229, 230, 231, 232, 233, 234, 235, 236, 237, 238, 239, 240, 241, 242, 243, 244, 245, 246, 247, 248, 249, 250, 251, 252, 253, 254, 255, 256, 257, 258, 259, 260, 261, 262, 263, 264, 265, 266, 267, 268, 269, 270, 271, 272, 273, 274, 275, 276, 277, 278, 279, 280, 281, 282, 283, 284, 285, 286, 287, 288, 289, 290, 291, 292, 293, 294, 295, 296, 297, 298, 299, 300, 301, 302, 303, 304, 305, 306, 307, 308, 309, 310, 311, 312, 313, 314, 315, 316, 317, 318, 319, 320, 321, 322, 323, 324, 325, 326, 327, 328, 329, 330, 331, 332, 333, 334, 335, 336, 337, 338, 339, 340, 341, 342, 343, 344, 345, 346, 347, 348, 349, 350, 351, 352, 353, 354, 355, 356, 357, 358, 359, 360, 361, 362, 363, 364, 365, 366, 367, 368, 369, 370, 371, 372, 373, 374, 375, 376, 377, 378, 379, 380, 381, 382, 383, 384, 385, 386, 387, 388, 389, 390, 391, 392, 393, 394, 395, 396, 397, 398, 399, 400, 401, 402, 403, 404, 405, 406, 407, 408, 409, 410, 411, 412, 413, 414, 415, 416, 417, 418, 419, 420, 421, 422, 423, 424, 425, 426, 427, 428, 429, 430, 431, 432, 433, 434, 435, 436, 437, 438, 439, 440, 441, 442, 443, 444, 445, 446, 447, 448, 449, 450, 451, 452, 453, 454, 455, 456, 457, 458, 459, 460, 461, 462, 463, 464, 465, 466, 467, 468, 469, 470, 471, 472, 473, 474, 475, 476, 477, 478, 479, 480, 481],
      "AcquisitionTime": ["095452.547500", "095454.037500", "095455.527500", "095457.017500", "095458.507500", "095459.997500", "095501.487500", "095502.977500", "095504.467500", "095505.957500", "095507.447500", "095508.937500", "095510.427500", "095511.917500", "095513.407500", "095514.897500", "095516.387500", "095517.877500", "095519.367500", "095520.857500", "095522.347500", "095523.837500", "095525.327500", "095526.817500", "095528.307500", "095529.797500", "095531.287500", "095532.777500", "095534.267500", "095535.757500", "095537.247500", "095538.737500", "095540.227500", "095541.717500", "095543.207500", "095544.697500", "095546.187500", "095547.677500", "095549.167500", "095550.657500", "095552.147500", "095553.637500", "095555.127500", "095556.617500", "095558.107500", "095559.597500", "095601.087500", "095602.577500", "095604.067500", "095605.557500", "095607.047500", "095608.537500", "095610.027500", "095611.517500", "095613.007500", "095614.497500", "095615.987500", "095617.477500", "095618.967500", "095620.457500", "095621.947500", "095623.437500", "095624.927500", "095626.417500", "095627.907500", "095629.397500", "095630.887500", "095632.377500", "095633.867500", "095635.357500", "095636.847500", "095638.337500", "095639.827500", "095641.317500", "095642.807500", "095644.297500", "095645.787500", "095647.277500", "095648.767500", "095650.257500", "095651.747500", "095653.237500", "095654.727500", "095656.217500", "095657.707500", "095659.197500", "095700.687500", "095702.177500", "095703.667500", "095705.157500", "095706.647500", "095708.137500", "095709.627500", "095711.117500", "095712.607500", "095714.097500", "095715.587500", "095717.077500", "095718.567500", "095720.057500", "095721.547500", "095723.037500", "095724.527500", "095726.017500", "095727.507500", "095728.997500", "095730.487500", "095731.977500", "095733.467500", "095734.957500", "095736.447500", "095737.937500", "095739.427500", "095740.917500", "095742.407500", "095743.897500", "095745.387500", "095746.877500", "095748.367500", "095749.857500", "095751.347500", "095752.837500", "095754.327500", "095755.817500", "095757.307500", "095758.797500", "095800.287500", "095801.777500", "095803.267500", "095804.757500", "095806.247500", "095807.737500", "095809.227500", "095810.717500", "095812.207500", "095813.697500", "095815.187500", "095816.677500", "095818.167500", "095819.657500", "095821.147500", "095822.637500", "095824.127500", "095825.617500", "095827.107500", "095828.597500", "095830.087500", "095831.577500", "095833.067500", "095834.557500", "095836.047500", "095837.537500", "095839.027500", "095840.517500", "095842.007500", "095843.497500", "095844.987500", "095846.477500", "095847.967500", "095849.457500", "095850.947500", "095852.437500", "095853.927500", "095855.417500", "095856.907500", "095858.397500", "095859.887500", "095901.377500", "095902.867500", "095904.357500", "095905.847500", "095907.337500", "095908.827500", "095910.317500", "095911.807500", "095913.297500", "095914.787500", "095916.277500", "095917.767500", "095919.257500", "095920.747500", "095922.237500", "095923.727500", "095925.217500", "095926.707500", "095928.197500", "095929.687500", "095931.177500", "095932.667500", "095934.157500", "095935.647500", "095937.137500", "095938.627500", "095940.117500", "095941.607500", "095943.097500", "095944.587500", "095946.077500", "095947.567500", "095949.057500", "095950.547500", "095952.037500", "095953.527500", "095955.017500", "095956.507500", "095957.997500", "095959.487500", "100000.977500", "100002.467500", "100003.957500", "100005.447500", "100006.937500", "100008.427500", "100009.917500", "100011.407500", "100012.897500", "100014.387500", "100015.877500", "100017.367500", "100018.857500", "100020.347500", "100021.837500", "100023.327500", "100024.817500", "100026.307500", "100027.797500", "100029.287500", "100030.777500", "100032.267500", "100033.757500", "100035.247500", "100036.737500", "100038.227500", "100039.717500", "100041.207500", "100042.697500", "100044.187500", "100045.677500", "100047.167500", "100048.657500", "100050.147500", "100051.637500", "100053.127500", "100054.617500", "100056.107500", "100057.597500", "100059.087500", "100100.577500", "100102.067500", "100103.557500", "100105.047500", "100106.537500", "100108.027500", "100109.517500", "100111.007500", "100112.497500", "100113.987500", "100115.477500", "100116.967500", "100118.457500", "100119.947500", "100121.437500", "100122.927500", "100124.417500", "100125.907500", "100127.397500", "100128.887500", "100130.377500", "100131.867500", "100133.357500", "100134.847500", "100136.337500", "100137.827500", "100139.317500", "100140.807500", "100142.297500", "100143.787500", "100145.277500", "100146.767500", "100148.257500", "100149.747500", "100151.237500", "100152.727500", "100154.217500", "100155.707500", "100157.197500", "100158.687500", "100200.177500", "100201.667500", "100203.157500", "100204.647500", "100206.137500", "100207.627500", "100209.117500", "100210.607500", "100212.097500", "100213.587500", "100215.077500", "100216.567500", "100218.057500", "100219.547500", "100221.037500", "100222.527500", "100224.017500", "100225.507500", "100226.997500", "100228.487500", "100229.977500", "100231.467500", "100232.957500", "100234.447500", "100235.937500", "100237.427500", "100238.917500", "100240.407500", "100241.897500", "100243.387500", "100244.877500", "100246.367500", "100247.857500", "100249.347500", "100250.837500", "100252.327500", "100253.817500", "100255.307500", "100256.797500", "100258.287500", "100259.777500", "100301.267500", "100302.757500", "100304.247500", "100305.737500", "100307.227500", "100308.717500", "100310.207500", "100311.697500", "100313.187500", "100314.677500", "100316.167500", "100317.657500", "100319.147500", "100320.637500", "100322.127500", "100323.617500", "100325.107500", "100326.597500", "100328.087500", "100329.577500", "100331.067500", "100332.557500", "100334.047500", "100335.537500", "100337.027500", "100338.517500", "100340.007500", "100341.497500", "100342.987500", "100344.477500", "100345.967500", "100347.457500", "100348.947500", "100350.437500", "100351.927500", "100353.417500", "100354.907500", "100356.397500", "100357.887500", "100359.377500", "100400.867500", "100402.357500", "100403.847500", "100405.337500", "100406.827500", "100408.317500", "100409.807500", "100411.297500", "100412.787500", "100414.277500", "100415.767500", "100417.257500", "100418.747500", "100420.237500", "100421.727500", "100423.217500", "100424.707500", "100426.197500", "100427.687500", "100429.177500", "100430.667500", "100432.157500", "100433.647500", "100435.137500", "100436.627500", "100438.117500", "100439.607500", "100441.097500", "100442.587500", "100444.077500", "100445.567500", "100447.057500", "100448.547500", "100450.037500", "100451.527500", "100453.017500", "100454.507500", "100455.997500", "100457.487500", "100458.977500", "100500.467500", "100501.957500", "100503.447500", "100504.937500", "100506.427500", "100507.917500", "100509.407500", "100510.897500", "100512.387500", "100513.877500", "100515.367500", "100516.857500", "100518.347500", "100519.837500", "100521.327500", "100522.817500", "100524.307500", "100525.797500", "100527.287500", "100528.777500", "100530.267500", "100531.757500", "100533.247500", "100534.737500", "100536.227500", "100537.717500", "100539.207500", "100540.697500", "100542.187500", "100543.677500", "100545.167500", "100546.657500", "100548.147500", "100549.637500", "100551.127500", "100552.617500", "100554.107500", "100555.597500", "100557.087500", "100558.577500", "100600.067500", "100601.557500", "100603.047500", "100604.537500", "100606.027500", "100607.517500", "100609.007500", "100610.497500", "100611.987500", "100613.477500", "100614.967500", "100616.457500", "100617.947500", "100619.437500", "100620.927500", "100622.417500", "100623.907500", "100625.397500", "100626.887500", "100628.377500", "100629.867500", "100631.357500", "100632.847500", "100634.337500", "100635.827500", "100637.317500", "100638.807500", "100640.297500", "100641.787500", "100643.277500", "100644.767500", "100646.257500", "100647.747500"],
      "ContentTime": ["095554.143000", "095554.146000", "095554.149000", "095554.152000", "095554.155000", "095554.158000", "095554.161000", "095614.082000", "095614.085000", "095614.093000", "095614.096000", "095614.099000", "095614.101000", "095614.110000", "095614.113000", "095614.116000", "095614.119000", "095614.122000", "095614.125000", "095614.128000", "095614.130000", "095614.133000", "095614.136000", "095614.139000", "095614.142000", "095614.145000", "095614.148000", "095634.083000", "095634.086000", "095634.089000", "095634.092000", "095634.095000", "095634.097000", "095634.100000", "095634.103000", "095634.107000", "095634.116000", "095634.120000", "095634.123000", "095634.126000", "095634.129000", "095634.132000", "095634.135000", "095634.138000", "095634.141000", "095634.144000", "095634.147000", "095654.083000", "095654.086000", "095654.089000", "095654.095000", "095654.098000", "095654.101000", "095654.104000", "095654.107000", "095654.110000", "095654.113000", "095654.115000", "095654.118000", "095654.126000", "095654.128000", "095654.131000", "095654.134000", "095654.137000", "095654.140000", "095654.143000", "095654.146000", "095654.149000", "095714.083000", "095714.086000", "095714.089000", "095714.092000", "095714.095000", "095714.097000", "095714.100000", "095714.103000", "095714.106000", "095714.109000", "095714.112000", "095714.115000", "095714.118000", "095714.120000", "095714.123000", "095714.126000", "095714.132000", "095714.135000", "095714.138000", "095714.141000", "095754.082000", "095754.085000", "095754.088000", "095754.091000", "095754.094000", "095754.097000", "095754.099000", "095754.102000", "095754.105000", "095754.108000", "095754.111000", "095754.114000", "095754.116000", "095754.120000", "095754.122000", "095754.125000", "095754.128000", "095754.131000", "095754.134000", "095754.137000", "095754.147000", "095754.150000", "095754.152000", "095754.155000", "095754.158000", "095754.161000", "095754.164000", "095754.167000", "095754.170000", "095754.173000", "095754.176000", "095754.178000", "095754.181000", "095834.082000", "095834.085000", "095834.088000", "095834.091000", "095834.094000", "095834.096000", "095834.099000", "095834.102000", "095834.105000", "095834.108000", "095834.111000", "095834.114000", "095834.117000", "095834.120000", "095834.122000", "095834.125000", "095834.128000", "095834.131000", "095834.134000", "095834.137000", "095834.139000", "095834.142000", "095834.145000", "095834.148000", "095834.151000", "095834.154000", "095834.157000", "095914.083000", "095914.086000", "095914.089000", "095914.092000", "095914.095000", "095914.098000", "095914.101000", "095914.103000", "095914.112000", "095914.115000", "095914.118000", "095914.121000", "095914.124000", "095914.127000", "095914.130000", "095914.133000", "095914.136000", "095914.139000", "095914.142000", "095914.145000", "095914.148000", "095914.151000", "095914.154000", "095914.156000", "095914.159000", "095914.162000", "095954.083000", "095954.086000", "095954.089000", "095954.092000", "095954.095000", "095954.097000", "095954.100000", "095954.103000", "095954.106000", "095954.109000", "095954.112000", "095954.115000", "095954.118000", "095954.121000", "095954.124000", "095954.127000", "095954.129000", "095954.132000", "095954.135000", "095954.138000", "095954.141000", "095954.144000", "095954.147000", "095954.150000", "095954.153000", "095954.155000", "095954.158000", "100034.082000", "100034.085000", "100034.088000", "100034.091000", "100034.094000", "100034.097000", "100034.100000", "100034.108000", "100034.111000", "100034.114000", "100034.117000", "100034.120000", "100034.123000", "100034.126000", "100034.129000", "100034.132000", "100034.135000", "100034.138000", "100034.140000", "100034.143000", "100034.146000", "100034.149000", "100034.152000", "100034.155000", "100034.158000", "100034.161000", "100034.164000", "100114.083000", "100114.086000", "100114.089000", "100114.092000", "100114.095000", "100114.098000", "100114.101000", "100114.103000", "100114.107000", "100114.109000", "100114.112000", "100114.115000", "100114.118000", "100114.121000", "100114.124000", "100114.127000", "100114.130000", "100114.132000", "100114.135000", "100114.138000", "100114.141000", "100114.144000", "100114.147000", "100114.150000", "100114.153000", "100114.155000", "100114.170000", "100154.083000", "100154.086000", "100154.089000", "100154.092000", "100154.095000", "100154.097000", "100154.100000", "100154.103000", "100154.106000", "100154.109000", "100154.112000", "100154.115000", "100154.118000", "100154.121000", "100154.124000", "100154.127000", "100154.130000", "100154.132000", "100154.135000", "100154.138000", "100154.141000", "100154.144000", "100154.147000", "100154.150000", "100154.153000", "100154.155000", "100154.158000", "100234.082000", "100234.085000", "100234.088000", "100234.091000", "100234.094000", "100234.097000", "100234.100000", "100234.102000", "100234.105000", "100234.108000", "100234.111000", "100234.114000", "100234.117000", "100234.120000", "100234.123000", "100234.126000", "100234.129000", "100234.132000", "100234.135000", "100234.138000", "100234.141000", "100234.144000", "100234.147000", "100234.150000", "100234.152000", "100234.155000", "100234.158000", "100314.088000", "100314.091000", "100314.094000", "100314.097000", "100314.100000", "100314.103000", "100314.106000", "100314.108000", "100314.111000", "100314.114000", "100314.117000", "100314.120000", "100314.123000", "100314.126000", "100314.129000", "100314.132000", "100314.135000", "100314.138000", "100314.141000", "100314.143000", "100314.146000", "100314.149000", "100314.152000", "100314.155000", "100314.158000", "100314.161000", "100314.164000", "100354.083000", "100354.086000", "100354.089000", "100354.102000", "100354.105000", "100354.109000", "100354.112000", "100354.115000", "100354.118000", "100354.121000", "100354.124000", "100354.126000", "100354.129000", "100354.132000", "100354.135000", "100354.138000", "100354.141000", "100354.144000", "100354.147000", "100354.150000", "100354.153000", "100354.156000", "100354.159000", "100354.161000", "100354.164000", "100354.167000", "100434.082000", "100434.085000", "100434.088000", "100434.091000", "100434.094000", "100434.096000", "100434.099000", "100434.102000", "100434.105000", "100434.108000", "100434.111000", "100434.114000", "100434.117000", "100434.120000", "100434.123000", "100434.126000", "100434.128000", "100434.131000", "100434.134000", "100434.137000", "100434.140000", "100434.143000", "100434.146000", "100434.149000", "100434.151000", "100434.154000", "100434.157000", "100514.082000", "100514.085000", "100514.088000", "100514.091000", "100514.094000", "100514.097000", "100514.100000", "100514.102000", "100514.105000", "100514.108000", "100514.111000", "100514.114000", "100514.117000", "100514.120000", "100514.123000", "100514.126000", "100514.129000", "100514.132000", "100514.135000", "100514.138000", "100514.141000", "100514.144000", "100514.147000", "100514.150000", "100514.152000", "100514.156000", "100514.158000", "100534.082000", "100534.085000", "100534.088000", "100534.091000", "100534.094000", "100534.097000", "100534.100000", "100534.103000", "100534.106000", "100534.108000", "100534.111000", "100534.114000", "100534.117000", "100534.120000", "100614.083000", "100614.086000", "100614.089000", "100614.092000", "100614.095000", "100614.098000", "100614.100000", "100614.103000", "100614.106000", "100614.109000", "100614.112000", "100614.115000", "100614.118000", "100614.121000", "100614.124000", "100614.127000", "100614.130000", "100614.133000", "100614.135000", "100614.138000", "100614.141000", "100614.144000", "100614.147000", "100614.150000", "100614.162000", "100614.165000", "100650.779000", "100650.782000", "100650.785000", "100650.788000", "100650.791000", "100650.794000", "100650.806000", "100650.809000", "100650.812000", "100650.815000", "100650.818000", "100650.821000", "100650.824000", "100650.827000", "100650.830000", "100650.833000", "100650.836000", "100650.838000", "100650.841000", "100650.844000", "100650.847000", "100650.850000", "100650.853000", "100650.856000", "100650.864000"],
