{
  "AcquisitionMatrixPE": 104,
  "AcquisitionNumber": 1,
  "AcquisitionTime": "09:30:37.917500",
  "BandwidthPerPixelPhaseEncode": 17.17,
  "BaseResolution": 104,
  "BodyPartExamined": "BRAIN",
  "CoilString": "HC1-7;NC1_2",
  "ConsistencyInfo": "N4_VE11C_LATEST_20160120",
  "ConversionSoftware": "dcm2niix",
  "ConversionSoftwareVersion": "v1.0.20190902",
  "DerivedVendorReportedEchoSpacing": 0.000560011,
  "DeviceSerialNumber": "167006",
  "DwellTime": 2.1e-06,
  "EchoTime": 0.037,
  "EchoTrainLength": 104,
  "EffectiveEchoSpacing": 0.000560011,
  "FlipAngle": 52,
  "ImageComments": "Unaliased_MB4_PE3_LB",
  "ImageOrientationPatientDICOM": [0.999052, 0.0179121, -0.0396847, -0.0259866, 0.97662, -0.213398],
  "ImageType": [
    "ORIGINAL",
    "PRIMARY",
    "M",
    "MB",
    "ND",
    "MOSAIC"
],
  "ImagingFrequency": 123.259,
  "InPlanePhaseEncodingDirectionDICOM": "COL",
  "InstitutionAddress": "Chemin_Queen-Mary_4565_Montreal_District_CA_H3W_1W5",
  "InstitutionName": "IUGM",
  "InstitutionalDepartmentName": "Department",
  "MRAcquisitionType": "2D",
  "MagneticFieldStrength": 3,
  "Manufacturer": "Siemens",
  "ManufacturersModelName": "Prisma_fit",
  "Modality": "MR",
  "MultibandAccelerationFactor": 4,
  "PartialFourier": 1,
  "PatientPosition": "HFS",
  "PercentPhaseFOV": 100,
  "PhaseEncodingDirection": "j",
  "PhaseEncodingSteps": 104,
  "PhaseResolution": 1,
  "PixelBandwidth": 2290,
  "ProcedureStepDescription": "games_shinobi",
  "ProtocolName": "func_task-shinobi_run-2",
  "PulseSequenceDetails": "%CustomerSeq%_cmrr_mbep2d_bold",
  "ReceiveCoilActiveElements": "HC1-7;NC1,2",
  "ReceiveCoilName": "HeadNeck_64",
  "ReconMatrixPE": 104,
  "RepetitionTime": 1.49,
  "SAR": 0.0260501,
  "ScanOptions": "FS",
  "ScanningSequence": "EP",
  "SequenceName": "epfid2d1_104",
  "SequenceVariant": "SK_SS",
  "SeriesDescription": "func_task-shinobi_run-2",
  "SeriesNumber": 11,
  "ShimSetting": [600, -7255, -8819, 598, -72, -276, 0, 75],
  "SliceThickness": 2,
  "SliceTiming": [0, 0.7825, 0.0975, 0.8825, 0.195, 0.98, 0.2925, 1.0775, 0.3925, 1.175, 0.49, 1.2725, 0.5875, 1.3725, 0.685, 0, 0.7825, 0.0975, 0.8825, 0.195, 0.98, 0.2925, 1.0775, 0.3925, 1.175, 0.49, 1.2725, 0.5875, 1.3725, 0.685, 0, 0.7825, 0.0975, 0.8825, 0.195, 0.98, 0.2925, 1.0775, 0.3925, 1.175, 0.49, 1.2725, 0.5875, 1.3725, 0.685, 0, 0.7825, 0.0975, 0.8825, 0.195, 0.98, 0.2925, 1.0775, 0.3925, 1.175, 0.49, 1.2725, 0.5875, 1.3725, 0.685],
  "SoftwareVersions": "syngo_MR_E11",
  "SpacingBetweenSlices": 2,
  "StationName": "MRC35049",
  "TaskName": "shinobi",
  "TotalReadoutTime": 0.0576811,
  "TxRefAmp": 209.692,
  "WipMemBlock": "2293bf71-ea87-47d2-9901-24f85b4f8b99||Sequence: R016 ve11c/master r/e634e98; Dec 19 2017 11:00:25 by eja",
  "dcmmeta_affine": [
    [-1.998103380203247, -0.05197310820221901, -0.06986884772777557, 107.58321380615234],
    [-0.03582410886883736, 1.9532392024993896, -0.42845475673675537, -73.24242401123047],
    [-0.07936934381723404, 0.42679694294929504, 1.9523178339004517, -44.34123611450195],
    [0.0, 0.0, 0.0, 1.0]
],
  "dcmmeta_reorient_transform": [
    [0.0, -1.0, 0.0, 103.0],
    [1.0, 0.0, 0.0, 0.0],
    [0.0, 0.0, 1.0, 0.0],
    [0.0, 0.0, 0.0, 1.0]
],
  "dcmmeta_shape": [104, 104, 60, 477],
  "dcmmeta_slice_dim": 2,
  "dcmmeta_version": 0.6,
  "global": {
    "const": {
      "AcquisitionMatrix": [104, 0, 0, 104],
      "AngioFlag": "N",
      "BitsAllocated": 16,
      "BitsStored": 16,
      "BodyPartExamined": "BRAIN",
      "Columns": 832,
      "EchoNumbers": 1,
      "EchoTime": 37.0,
      "EchoTrainLength": 104,
      "FlipAngle": 52.0,
      "HighBit": 15,
      "ImageOrientationPatient": [0.9990516929052, 0.01791205472184, -0.0396846720902, -0.025986554885, 0.97661957323626, -0.213398472668],
      "ImagePositionPatient": [-810.62140477851, -851.96023648873, 183.86337704611],
      "ImageType": [
        "ORIGINAL",
        "PRIMARY",
        "M",
        "MB",
        "ND",
        "MOSAIC"
],
      "ImagedNucleus": "1H",
      "ImagingFrequency": 123.25898,
      "InPlanePhaseEncodingDirection": "COL",
      "MRAcquisitionType": "2D",
      "MagneticFieldStrength": 3.0,
      "Manufacturer": "SIEMENS",
      "ManufacturerModelName": "Prisma_fit",
      "Modality": "MR",
      "NumberOfAverages": 1.0,
      "NumberOfPhaseEncodingSteps": 104,
      "PercentPhaseFieldOfView": 100.0,
      "PercentSampling": 100.0,
      "PerformedProcedureStepStartTime": "085853.536000",
      "PhotometricInterpretation": "MONOCHROME2",
      "PixelBandwidth": 2290.0,
      "PixelRepresentation": 0,
      "PixelSpacing": [2.0, 2.0],
      "ProtocolName": "func_task-shinobi_run-2",
      "RepetitionTime": 1490.0,
      "Rows": 832,
      "SAR": 0.02605006927007,
      "SamplesPerPixel": 1,
      "ScanOptions": "FS",
      "ScanningSequence": "EP",
      "SequenceName": "epfid2d1_104",
      "SequenceVariant": [
        "SK",
        "SS"
],
      "SeriesDescription": "func_task-shinobi_run-2",
      "SeriesNumber": 11,
      "SeriesTime": "093158.714000",
      "SliceLocation": -31.351920344529,
      "SliceThickness": 2.0,
      "SmallestImagePixelValue": 0,
      "SoftwareVersions": "syngo MR E11",
      "SpacingBetweenSlices": 2.0000000456311,
      "SpecificCharacterSet": "ISO_IR 100",
      "StudyID": "1",
      "StudyTime": "085853.422000",
      "TransmitCoilName": "Body",
      "VariableFlipAngleFlag": "N",
      "WindowCenterWidthExplanation": "Algo1",
      "dBdt": 0.0},
    "slices": {}
  },
  "time": {
    "samples": {
      "AcquisitionNumber": [1, 2, 3, 4, 5, 6, 7, 8, 9, 10, 11, 12, 13, 14, 15, 16, 17, 18, 19, 20, 21, 22, 23, 24, 25, 26, 27, 28, 29, 30, 31, 32, 33, 34, 35, 36, 37, 38, 39, 40, 41, 42, 43, 44, 45, 46, 47, 48, 49, 50, 51, 52, 53, 54, 55, 56, 57, 58, 59, 60, 61, 62, 63, 64, 65, 66, 67, 68, 69, 70, 71, 72, 73, 74, 75, 76, 77, 78, 79, 80, 81, 82, 83, 84, 85, 86, 87, 88, 89, 90, 91, 92, 93, 94, 95, 96, 97, 98, 99, 100, 101, 102, 103, 104, 105, 106, 107, 108, 109, 110, 111, 112, 113, 114, 115, 116, 117, 118, 119, 120, 121, 122, 123, 124, 125, 126, 127, 128, 129, 130, 131, 132, 133, 134, 135, 136, 137, 138, 139, 140, 141, 142, 143, 144, 145, 146, 147, 148, 149, 150, 151, 152, 153, 154, 155, 156, 157, 158, 159, 160, 161, 162, 163, 164, 165, 166, 167, 168, 169, 170, 171, 172, 173, 174, 175, 176, 177, 178, 179, 180, 181, 182, 183, 184, 185, 186, 187, 188, 189, 190, 191, 192, 193, 194, 195, 196, 197, 198, 199, 200, 201, 202, 203, 204, 205, 206, 207, 208, 209, 210, 211, 212, 213, 214, 215, 216, 217, 218, 219, 220, 221, 222, 223, 224, 225, 226, 227, 228, 229, 230, 231, 232, 233, 234, 235, 236, 237, 238, 239, 240, 241, 242, 243, 244, 245, 246, 247, 248, 249, 250, 251, 252, 253, 254, 255, 256, 257, 258, 259, 260, 261, 262, 263, 264, 265, 266, 267, 268, 269, 270, 271, 272, 273, 274, 275, 276, 277, 278, 279, 280, 281, 282, 283, 284, 285, 286, 287, 288, 289, 290, 291, 292, 293, 294, 295, 296, 297, 298, 299, 300, 301, 302, 303, 304, 305, 306, 307, 308, 309, 310, 311, 312, 313, 314, 315, 316, 317, 318, 319, 320, 321, 322, 323, 324, 325, 326, 327, 328, 329, 330, 331, 332, 333, 334, 335, 336, 337, 338, 339, 340, 341, 342, 343, 344, 345, 346, 347, 348, 349, 350, 351, 352, 353, 354, 355, 356, 357, 358, 359, 360, 361, 362, 363, 364, 365, 366, 367, 368, 369, 370, 371, 372, 373, 374, 375, 376, 377, 378, 379, 380, 381, 382, 383, 384, 385, 386, 387, 388, 389, 390, 391, 392, 393, 394, 395, 396, 397, 398, 399, 400, 401, 402, 403, 404, 405, 406, 407, 408, 409, 410, 411, 412, 413, 414, 415, 416, 417, 418, 419, 420, 421, 422, 423, 424, 425, 426, 427, 428, 429, 430, 431, 432, 433, 434, 435, 436, 437, 438, 439, 440, 441, 442, 443, 444, 445, 446, 447, 448, 449, 450, 451, 452, 453, 454, 455, 456, 457, 458, 459, 460, 461, 462, 463, 464, 465, 466, 467, 468, 469, 470, 471, 472, 473, 474, 475, 476, 477],
      "AcquisitionTime": ["093037.917500", "093039.407500", "093040.897500", "093042.387500", "093043.877500", "093045.367500", "093046.857500", "093048.347500", "093049.837500", "093051.327500", "093052.817500", "093054.307500", "093055.797500", "093057.287500", "093058.777500", "093100.267500", "093101.757500", "093103.247500", "093104.737500", "093106.227500", "093107.717500", "093109.207500", "093110.697500", "093112.187500", "093113.677500", "093115.167500", "093116.657500", "093118.147500", "093119.637500", "093121.127500", "093122.617500", "093124.107500", "093125.597500", "093127.087500", "093128.577500", "093130.067500", "093131.557500", "093133.047500", "093134.537500", "093136.027500", "093137.517500", "093139.007500", "093140.497500", "093141.987500", "093143.477500", "093144.967500", "093146.457500", "093147.947500", "093149.437500", "093150.927500", "093152.417500", "093153.907500", "093155.397500", "093156.887500", "093158.377500", "093159.867500", "093201.357500", "093202.847500", "093204.337500", "093205.827500", "093207.317500", "093208.807500", "093210.297500", "093211.787500", "093213.277500", "093214.767500", "093216.257500", "093217.747500", "093219.237500", "093220.727500", "093222.217500", "093223.707500", "093225.197500", "093226.687500", "093228.177500", "093229.667500", "093231.157500", "093232.647500", "093234.137500", "093235.627500", "093237.117500", "093238.607500", "093240.097500", "093241.587500", "093243.077500", "093244.567500", "093246.057500", "093247.547500", "093249.037500", "093250.527500", "093252.017500", "093253.507500", "093254.997500", "093256.487500", "093257.977500", "093259.467500", "093300.957500", "093302.447500", "093303.937500", "093305.427500", "093306.917500", "093308.407500", "093309.897500", "093311.387500", "093312.877500", "093314.367500", "093315.857500", "093317.347500", "093318.837500", "093320.327500", "093321.817500", "093323.307500", "093324.797500", "093326.287500", "093327.777500", "093329.267500", "093330.757500", "093332.247500", "093333.737500", "093335.227500", "093336.717500", "093338.207500", "093339.697500", "093341.187500", "093342.677500", "093344.167500", "093345.657500", "093347.147500", "093348.637500", "093350.127500", "093351.617500", "093353.107500", "093354.597500", "093356.087500", "093357.577500", "093359.067500", "093400.557500", "093402.047500", "093403.537500", "093405.027500", "093406.517500", "093408.007500", "093409.497500", "093410.987500", "093412.477500", "093413.967500", "093415.457500", "093416.947500", "093418.437500", "093419.927500", "093421.417500", "093422.907500", "093424.397500", "093425.887500", "093427.377500", "093428.867500", "093430.357500", "093431.847500", "093433.337500", "093434.827500", "093436.317500", "093437.807500", "093439.297500", "093440.787500", "093442.277500", "093443.767500", "093445.257500", "093446.747500", "093448.237500", "093449.727500", "093451.217500", "093452.707500", "093454.197500", "093455.687500", "093457.177500", "093458.667500", "093500.157500", "093501.647500", "093503.137500", "093504.627500", "093506.117500", "093507.607500", "093509.097500", "093510.587500", "093512.077500", "093513.567500", "093515.057500", "093516.547500", "093518.037500", "093519.527500", "093521.017500", "093522.507500", "093523.997500", "093525.487500", "093526.977500", "093528.467500", "093529.957500", "093531.447500", "093532.937500", "093534.427500", "093535.917500", "093537.407500", "093538.897500", "093540.387500", "093541.877500", "093543.367500", "093544.857500", "093546.347500", "093547.837500", "093549.327500", "093550.817500", "093552.307500", "093553.797500", "093555.287500", "093556.777500", "093558.267500", "093559.757500", "093601.247500", "093602.737500", "093604.227500", "093605.717500", "093607.207500", "093608.697500", "093610.187500", "093611.677500", "093613.167500", "093614.657500", "093616.147500", "093617.637500", "093619.127500", "093620.617500", "093622.107500", "093623.597500", "093625.087500", "093626.577500", "093628.067500", "093629.557500", "093631.047500", "093632.537500", "093634.027500", "093635.517500", "093637.007500", "093638.497500", "093639.987500", "093641.477500", "093642.967500", "093644.457500", "093645.947500", "093647.437500", "093648.927500", "093650.417500", "093651.907500", "093653.397500", "093654.887500", "093656.377500", "093657.867500", "093659.357500", "093700.847500", "093702.337500", "093703.827500", "093705.317500", "093706.807500", "093708.297500", "093709.787500", "093711.277500", "093712.767500", "093714.257500", "093715.747500", "093717.237500", "093718.727500", "093720.217500", "093721.707500", "093723.197500", "093724.687500", "093726.177500", "093727.667500", "093729.157500", "093730.647500", "093732.137500", "093733.627500", "093735.117500", "093736.607500", "093738.097500", "093739.587500", "093741.077500", "093742.567500", "093744.057500", "093745.547500", "093747.037500", "093748.527500", "093750.017500", "093751.507500", "093752.997500", "093754.487500", "093755.977500", "093757.467500", "093758.957500", "093800.447500", "093801.937500", "093803.427500", "093804.917500", "093806.407500", "093807.897500", "093809.387500", "093810.877500", "093812.367500", "093813.857500", "093815.347500", "093816.837500", "093818.327500", "093819.817500", "093821.307500", "093822.797500", "093824.287500", "093825.777500", "093827.267500", "093828.757500", "093830.247500", "093831.737500", "093833.227500", "093834.717500", "093836.207500", "093837.697500", "093839.187500", "093840.677500", "093842.167500", "093843.657500", "093845.147500", "093846.637500", "093848.127500", "093849.617500", "093851.107500", "093852.597500", "093854.087500", "093855.577500", "093857.067500", "093858.557500", "093900.047500", "093901.537500", "093903.027500", "093904.517500", "093906.007500", "093907.497500", "093908.987500", "093910.477500", "093911.967500", "093913.457500", "093914.947500", "093916.437500", "093917.927500", "093919.417500", "093920.907500", "093922.397500", "093923.887500", "093925.377500", "093926.867500", "093928.357500", "093929.847500", "093931.337500", "093932.827500", "093934.317500", "093935.807500", "093937.297500", "093938.787500", "093940.277500", "093941.767500", "093943.257500", "093944.747500", "093946.237500", "093947.727500", "093949.217500", "093950.707500", "093952.197500", "093953.687500", "093955.177500", "093956.667500", "093958.157500", "093959.647500", "094001.137500", "094002.627500", "094004.117500", "094005.607500", "094007.097500", "094008.587500", "094010.077500", "094011.567500", "094013.057500", "094014.547500", "094016.037500", "094017.527500", "094019.017500", "094020.507500", "094021.997500", "094023.487500", "094024.977500", "094026.467500", "094027.957500", "094029.447500", "094030.937500", "094032.427500", "094033.917500", "094035.407500", "094036.897500", "094038.387500", "094039.877500", "094041.367500", "094042.857500", "094044.347500", "094045.837500", "094047.327500", "094048.817500", "094050.307500", "094051.797500", "094053.287500", "094054.777500", "094056.267500", "094057.757500", "094059.247500", "094100.737500", "094102.227500", "094103.717500", "094105.207500", "094106.697500", "094108.187500", "094109.677500", "094111.167500", "094112.657500", "094114.147500", "094115.637500", "094117.127500", "094118.617500", "094120.107500", "094121.597500", "094123.087500", "094124.577500", "094126.067500", "094127.557500", "094129.047500", "094130.537500", "094132.027500", "094133.517500", "094135.007500", "094136.497500", "094137.987500", "094139.477500", "094140.967500", "094142.457500", "094143.947500", "094145.437500", "094146.927500", "094148.417500", "094149.907500", "094151.397500", "094152.887500", "094154.377500", "094155.867500", "094157.357500", "094158.847500", "094200.337500", "094201.827500", "094203.317500", "094204.807500", "094206.297500", "094207.787500", "094209.277500", "094210.767500", "094212.257500", "094213.747500", "094215.237500", "094216.727500", "094218.217500", "094219.707500", "094221.197500", "094222.687500", "094224.177500", "094225.667500", "094227.157500"],
      "ContentTime": ["093158.716000", "093158.720000", "093158.722000", "093158.725000", "093158.728000", "093158.731000", "093158.734000", "093158.737000", "093158.740000", "093158.743000", "093158.746000", "093158.748000", "093158.751000", "093158.754000", "093158.759000", "093158.761000", "093158.764000", "093158.767000", "093158.770000", "093158.773000", "093158.776000", "093158.779000", "093158.782000", "093158.785000", "093158.787000", "093158.790000", "093158.793000", "093218.688000", "093218.691000", "093218.694000", "093218.697000", "093218.700000", "093218.705000", "093218.708000", "093218.711000", "093218.714000", "093218.717000", "093218.720000", "093218.723000", "093218.726000", "093218.728000", "093218.731000", "093218.734000", "093218.737000", "093218.740000", "093218.743000", "093218.745000", "093238.688000", "093238.691000", "093238.694000", "093238.697000", "093238.700000", "093238.703000", "093238.706000", "093238.709000", "093238.716000", "093238.719000", "093238.722000", "093238.724000", "093238.727000", "093238.730000", "093238.733000", "093238.736000", "093238.739000", "093238.742000", "093238.745000", "093238.748000", "093258.690000", "093258.694000", "093258.697000", "093258.699000", "093258.702000", "093258.705000", "093258.708000", "093258.711000", "093258.714000", "093258.717000", "093258.720000", "093258.722000", "093258.725000", "093258.731000", "093258.734000", "093258.736000", "093258.739000", "093258.742000", "093258.745000", "093258.748000", "093318.689000", "093318.692000", "093318.695000", "093318.698000", "093318.701000", "093318.704000", "093318.706000", "093318.709000", "093318.712000", "093318.715000", "093318.718000", "093318.721000", "093318.724000", "093318.727000", "093318.729000", "093318.732000", "093318.735000", "093318.738000", "093318.741000", "093318.744000", "093358.688000", "093358.691000", "093358.694000", "093358.697000", "093358.700000", "093358.702000", "093358.705000", "093358.708000", "093358.711000", "093358.714000", "093358.717000", "093358.720000", "093358.723000", "093358.725000", "093358.728000", "093358.731000", "093358.734000", "093358.737000", "093358.740000", "093358.743000", "093358.746000", "093358.748000", "093358.751000", "093358.754000", "093358.757000", "093358.760000", "093358.763000", "093438.688000", "093438.691000", "093438.694000", "093438.697000", "093438.699000", "093438.702000", "093438.705000", "093438.708000", "093438.711000", "093438.714000", "093438.717000", "093438.720000", "093438.723000", "093438.725000", "093438.728000", "093438.731000", "093438.734000", "093438.737000", "093438.740000", "093438.743000", "093438.746000", "093438.748000", "093438.751000", "093438.754000", "093438.757000", "093438.760000", "093438.763000", "093518.689000", "093518.692000", "093518.695000", "093518.698000", "093518.701000", "093518.704000", "093518.706000", "093518.709000", "093518.712000", "093518.715000", "093518.718000", "093518.721000", "093518.724000", "093518.727000", "093518.730000", "093518.733000", "093518.737000", "093518.740000", "093518.744000", "093518.747000", "093518.750000", "093518.764000", "093518.767000", "093518.770000", "093518.773000", "093518.776000", "093538.689000", "093538.692000", "093538.695000", "093538.698000", "093538.701000", "093538.703000", "093538.706000", "093538.709000", "093538.712000", "093538.715000", "093538.718000", "093538.721000", "093538.723000", "093538.727000", "093618.688000", "093618.691000", "093618.694000", "093618.697000", "093618.700000", "093618.703000", "093618.705000", "093618.708000", "093618.711000", "093618.714000", "093618.717000", "093618.720000", "093618.723000", "093618.726000", "093618.729000", "093618.732000", "093618.734000", "093618.737000", "093618.740000", "093618.743000", "093618.746000", "093618.749000", "093618.752000", "093618.755000", "093618.757000", "093618.760000", "093618.763000", "093658.688000", "093658.691000", "093658.694000", "093658.697000", "093658.700000", "093658.703000", "093658.705000", "093658.708000", "093658.711000", "093658.714000", "093658.717000", "093658.720000", "093658.723000", "093658.726000", "093658.729000", "093658.738000", "093658.741000", "093658.744000", "093658.747000", "093658.750000", "093658.753000", "093658.756000", "093658.759000", "093658.762000", "093658.765000", "093658.768000", "093658.770000", "093738.689000", "093738.692000", "093738.695000", "093738.698000", "093738.701000", "093738.704000", "093738.707000", "093738.709000", "093738.712000", "093738.715000", "093738.718000", "093738.721000", "093738.724000", "093738.727000", "093738.730000", "093738.733000", "093738.736000", "093738.739000", "093738.741000", "093738.744000", "093738.747000", "093738.750000", "093738.753000", "093738.756000", "093738.759000", "093738.762000", "093818.689000", "093818.692000", "093818.695000", "093818.698000", "093818.701000", "093818.704000", "093818.707000", "093818.709000", "093818.712000", "093818.715000", "093818.718000", "093818.721000", "093818.724000", "093818.727000", "093818.730000", "093818.732000", "093818.735000", "093818.738000", "093818.741000", "093818.744000", "093818.747000", "093818.750000", "093818.753000", "093818.756000", "093818.759000", "093818.762000", "093818.764000", "093858.688000", "093858.691000", "093858.694000", "093858.697000", "093858.700000", "093858.703000", "093858.706000", "093858.709000", "093858.712000", "093858.715000", "093858.718000", "093858.720000", "093858.723000", "093858.726000", "093858.729000", "093858.732000", "093858.735000", "093858.738000", "093858.741000", "093858.743000", "093858.746000", "093858.749000", "093858.752000", "093858.755000", "093858.758000", "093858.761000", "093858.764000", "093938.689000", "093938.692000", "093938.695000", "093938.698000", "093938.701000", "093938.704000", "093938.707000", "093938.710000", "093938.713000", "093938.716000", "093938.720000", "093938.723000", "093938.726000", "093938.729000", "093938.732000", "093938.735000", "093938.738000", "093938.741000", "093938.743000", "093938.746000", "093938.749000", "093938.752000", "093938.755000", "093938.758000", "093938.761000", "093938.764000", "093938.767000", "094018.689000", "094018.692000", "094018.695000", "094018.698000", "094018.701000", "094018.704000", "094018.707000", "094018.710000", "094018.712000", "094018.715000", "094018.718000", "094018.721000", "094018.724000", "094018.727000", "094018.730000", "094018.733000", "094018.736000", "094018.738000", "094018.741000", "094018.744000", "094018.747000", "094018.750000", "094018.753000", "094018.756000", "094018.759000", "094018.762000", "094018.764000", "094058.688000", "094058.691000", "094058.694000", "094058.697000", "094058.700000", "094058.703000", "094058.706000", "094058.709000", "094058.711000", "094058.714000", "094058.717000", "094058.720000", "094058.723000", "094058.726000", "094058.729000", "094058.732000", "094058.735000", "094058.738000", "094058.741000", "094058.743000", "094058.746000", "094058.749000", "094058.752000", "094058.755000", "094058.758000", "094058.761000", "094058.764000", "094138.688000", "094138.691000", "094138.694000", "094138.697000", "094138.700000", "094138.703000", "094138.706000", "094138.709000", "094138.712000", "094138.715000", "094138.718000", "094138.721000", "094138.724000", "094138.727000", "094138.729000", "094138.732000", "094138.735000", "094138.738000", "094138.741000", "094138.744000", "094138.747000", "094138.750000", "094138.753000", "094138.755000", "094138.758000", "094138.761000", "094218.689000", "094218.692000", "094218.695000", "094218.698000", "094218.701000", "094218.704000", "094218.707000", "094218.710000", "094218.712000", "094218.715000", "094218.718000", "094218.721000", "094218.724000", "094218.727000", "094218.730000", "094218.733000", "094218.736000", "094218.739000", "094218.741000", "094218.744000", "094218.747000", "094218.750000", "094218.753000", "094218.756000", "094218.759000", "094218.762000", "094218.765000", "094229.476000", "094229.479000", "094229.482000", "094229.494000", "094229.497000", "094229.500000", "094229.503000", "094229.506000"],
