{
  "AcquisitionMatrixPE": 104,
  "AcquisitionNumber": 1,
  "AcquisitionTime": "09:43:9.082500",
  "BandwidthPerPixelPhaseEncode": 17.17,
  "BaseResolution": 104,
  "BodyPartExamined": "BRAIN",
  "CoilString": "HC1-7;NC1_2",
  "ConsistencyInfo": "N4_VE11C_LATEST_20160120",
  "ConversionSoftware": "dcm2niix",
  "ConversionSoftwareVersion": "v1.0.20190902",
  "DerivedVendorReportedEchoSpacing": 0.000560011,
  "DeviceSerialNumber": "167006",
  "DwellTime": 2.1e-06,
  "EchoTime": 0.037,
  "EchoTrainLength": 104,
  "EffectiveEchoSpacing": 0.000560011,
  "FlipAngle": 52,
  "ImageComments": "Unaliased_MB4_PE3_LB",
  "ImageOrientationPatientDICOM": [0.999052, 0.0179121, -0.0396847, -0.0259866, 0.97662, -0.213398],
  "ImageType": [
    "ORIGINAL",
    "PRIMARY",
    "M",
    "MB",
    "ND",
    "MOSAIC"
],
  "ImagingFrequency": 123.259,
  "InPlanePhaseEncodingDirectionDICOM": "COL",
  "InstitutionAddress": "Chemin_Queen-Mary_4565_Montreal_District_CA_H3W_1W5",
  "InstitutionName": "IUGM",
  "InstitutionalDepartmentName": "Department",
  "MRAcquisitionType": "2D",
  "MagneticFieldStrength": 3,
  "Manufacturer": "Siemens",
  "ManufacturersModelName": "Prisma_fit",
  "Modality": "MR",
  "MultibandAccelerationFactor": 4,
  "PartialFourier": 1,
  "PatientPosition": "HFS",
  "PercentPhaseFOV": 100,
  "PhaseEncodingDirection": "j",
  "PhaseEncodingSteps": 104,
  "PhaseResolution": 1,
  "PixelBandwidth": 2290,
  "ProcedureStepDescription": "games_shinobi",
  "ProtocolName": "func_task-shinobi_run-3",
  "PulseSequenceDetails": "%CustomerSeq%_cmrr_mbep2d_bold",
  "ReceiveCoilActiveElements": "HC1-7;NC1,2",
  "ReceiveCoilName": "HeadNeck_64",
  "ReconMatrixPE": 104,
  "RepetitionTime": 1.49,
  "SAR": 0.0260501,
  "ScanOptions": "FS",
  "ScanningSequence": "EP",
  "SequenceName": "epfid2d1_104",
  "SequenceVariant": "SK_SS",
  "SeriesDescription": "func_task-shinobi_run-3",
  "SeriesNumber": 13,
  "ShimSetting": [600, -7255, -8819, 598, -72, -276, 0, 75],
  "SliceThickness": 2,
  "SliceTiming": [0, 0.785, 0.1, 0.8825, 0.1975, 0.98, 0.295, 1.08, 0.3925, 1.1775, 0.49, 1.275, 0.59, 1.3725, 0.6875, 0, 0.785, 0.1, 0.8825, 0.1975, 0.98, 0.295, 1.08, 0.3925, 1.1775, 0.49, 1.275, 0.59, 1.3725, 0.6875, 0, 0.785, 0.1, 0.8825, 0.1975, 0.98, 0.295, 1.08, 0.3925, 1.1775, 0.49, 1.275, 0.59, 1.3725, 0.6875, 0, 0.785, 0.1, 0.8825, 0.1975, 0.98, 0.295, 1.08, 0.3925, 1.1775, 0.49, 1.275, 0.59, 1.3725, 0.6875],
  "SoftwareVersions": "syngo_MR_E11",
  "SpacingBetweenSlices": 2,
  "StationName": "MRC35049",
  "TaskName": "shinobi",
  "TotalReadoutTime": 0.0576811,
  "TxRefAmp": 209.692,
  "WipMemBlock": "7af2ca82-a8ed-46e9-9991-dda036162f4c||Sequence: R016 ve11c/master r/e634e98; Dec 19 2017 11:00:25 by eja",
  "dcmmeta_affine": [
    [-1.998103380203247, -0.05197310820221901, -0.06986884772777557, 107.58321380615234],
    [-0.03582410886883736, 1.9532392024993896, -0.42845475673675537, -73.24242401123047],
    [-0.07936934381723404, 0.42679694294929504, 1.9523178339004517, -44.34123611450195],
    [0.0, 0.0, 0.0, 1.0]
],
  "dcmmeta_reorient_transform": [
    [0.0, -1.0, 0.0, 103.0],
    [1.0, 0.0, 0.0, 0.0],
    [0.0, 0.0, 1.0, 0.0],
    [0.0, 0.0, 0.0, 1.0]
],
  "dcmmeta_shape": [104, 104, 60, 451],
  "dcmmeta_slice_dim": 2,
  "dcmmeta_version": 0.6,
  "global": {
    "const": {
      "AcquisitionMatrix": [104, 0, 0, 104],
      "AngioFlag": "N",
      "BitsAllocated": 16,
      "BitsStored": 16,
      "BodyPartExamined": "BRAIN",
      "Columns": 832,
      "EchoNumbers": 1,
      "EchoTime": 37.0,
      "EchoTrainLength": 104,
      "FlipAngle": 52.0,
      "HighBit": 15,
      "ImageOrientationPatient": [0.9990516929052, 0.01791205472184, -0.0396846720902, -0.025986554885, 0.97661957323626, -0.213398472668],
      "ImagePositionPatient": [-810.62140477851, -851.96023648873, 183.86337704611],
      "ImageType": [
        "ORIGINAL",
        "PRIMARY",
        "M",
        "MB",
        "ND",
        "MOSAIC"
],
      "ImagedNucleus": "1H",
      "ImagingFrequency": 123.258982,
      "InPlanePhaseEncodingDirection": "COL",
      "MRAcquisitionType": "2D",
      "MagneticFieldStrength": 3.0,
      "Manufacturer": "SIEMENS",
      "ManufacturerModelName": "Prisma_fit",
      "Modality": "MR",
      "NumberOfAverages": 1.0,
      "NumberOfPhaseEncodingSteps": 104,
      "PercentPhaseFieldOfView": 100.0,
      "PercentSampling": 100.0,
      "PerformedProcedureStepStartTime": "085853.536000",
      "PhotometricInterpretation": "MONOCHROME2",
      "PixelBandwidth": 2290.0,
      "PixelRepresentation": 0,
      "PixelSpacing": [2.0, 2.0],
      "ProtocolName": "func_task-shinobi_run-3",
      "RepetitionTime": 1490.0,
      "Rows": 832,
      "SAR": 0.02605006927007,
      "SamplesPerPixel": 1,
      "ScanOptions": "FS",
      "ScanningSequence": "EP",
      "SequenceName": "epfid2d1_104",
      "SequenceVariant": [
        "SK",
        "SS"
],
      "SeriesDescription": "func_task-shinobi_run-3",
      "SeriesNumber": 13,
      "SeriesTime": "094438.579000",
      "SliceLocation": -31.351920344529,
      "SliceThickness": 2.0,
      "SmallestImagePixelValue": 0,
      "SoftwareVersions": "syngo MR E11",
      "SpacingBetweenSlices": 2.0000000456311,
      "SpecificCharacterSet": "ISO_IR 100",
      "StudyID": "1",
      "StudyTime": "085853.422000",
      "TransmitCoilName": "Body",
      "VariableFlipAngleFlag": "N",
      "WindowCenterWidthExplanation": "Algo1",
      "dBdt": 0.0},
    "slices": {}
  },
  "time": {
    "samples": {
      "AcquisitionNumber": [1, 2, 3, 4, 5, 6, 7, 8, 9, 10, 11, 12, 13, 14, 15, 16, 17, 18, 19, 20, 21, 22, 23, 24, 25, 26, 27, 28, 29, 30, 31, 32, 33, 34, 35, 36, 37, 38, 39, 40, 41, 42, 43, 44, 45, 46, 47, 48, 49, 50, 51, 52, 53, 54, 55, 56, 57, 58, 59, 60, 61, 62, 63, 64, 65, 66, 67, 68, 69, 70, 71, 72, 73, 74, 75, 76, 77, 78, 79, 80, 81, 82, 83, 84, 85, 86, 87, 88, 89, 90, 91, 92, 93, 94, 95, 96, 97, 98, 99, 100, 101, 102, 103, 104, 105, 106, 107, 108, 109, 110, 111, 112, 113, 114, 115, 116, 117, 118, 119, 120, 121, 122, 123, 124, 125, 126, 127, 128, 129, 130, 131, 132, 133, 134, 135, 136, 137, 138, 139, 140, 141, 142, 143, 144, 145, 146, 147, 148, 149, 150, 151, 152, 153, 154, 155, 156, 157, 158, 159, 160, 161, 162, 163, 164, 165, 166, 167, 168, 169, 170, 171, 172, 173, 174, 175, 176, 177, 178, 179, 180, 181, 182, 183, 184, 185, 186, 187, 188, 189, 190, 191, 192, 193, 194, 195, 196, 197, 198, 199, 200, 201, 202, 203, 204, 205, 206, 207, 208, 209, 210, 211, 212, 213, 214, 215, 216, 217, 218, 219, 220, 221, 222, 223, 224, 225, 226, 227, 228, 229, 230, 231, 232, 233, 234, 235, 236, 237, 238, 239, 240, 241, 242, 243, 244, 245, 246, 247, 248, 249, 250, 251, 252, 253, 254, 255, 256, 257, 258, 259, 260, 261, 262, 263, 264, 265, 266, 267, 268, 269, 270, 271, 272, 273, 274, 275, 276, 277, 278, 279, 280, 281, 282, 283, 284, 285, 286, 287, 288, 289, 290, 291, 292, 293, 294, 295, 296, 297, 298, 299, 300, 301, 302, 303, 304, 305, 306, 307, 308, 309, 310, 311, 312, 313, 314, 315, 316, 317, 318, 319, 320, 321, 322, 323, 324, 325, 326, 327, 328, 329, 330, 331, 332, 333, 334, 335, 336, 337, 338, 339, 340, 341, 342, 343, 344, 345, 346, 347, 348, 349, 350, 351, 352, 353, 354, 355, 356, 357, 358, 359, 360, 361, 362, 363, 364, 365, 366, 367, 368, 369, 370, 371, 372, 373, 374, 375, 376, 377, 378, 379, 380, 381, 382, 383, 384, 385, 386, 387, 388, 389, 390, 391, 392, 393, 394, 395, 396, 397, 398, 399, 400, 401, 402, 403, 404, 405, 406, 407, 408, 409, 410, 411, 412, 413, 414, 415, 416, 417, 418, 419, 420, 421, 422, 423, 424, 425, 426, 427, 428, 429, 430, 431, 432, 433, 434, 435, 436, 437, 438, 439, 440, 441, 442, 443, 444, 445, 446, 447, 448, 449, 450, 451],
      "AcquisitionTime": ["094309.082500", "094310.572500", "094312.062500", "094313.552500", "094315.042500", "094316.532500", "094318.022500", "094319.512500", "094321.002500", "094322.492500", "094323.982500", "094325.472500", "094326.962500", "094328.452500", "094329.942500", "094331.432500", "094332.922500", "094334.412500", "094335.902500", "094337.392500", "094338.882500", "094340.372500", "094341.862500", "094343.352500", "094344.842500", "094346.332500", "094347.822500", "094349.312500", "094350.802500", "094352.292500", "094353.782500", "094355.272500", "094356.762500", "094358.252500", "094359.742500", "094401.232500", "094402.722500", "094404.212500", "094405.702500", "094407.192500", "094408.682500", "094410.172500", "094411.662500", "094413.152500", "094414.642500", "094416.132500", "094417.622500", "094419.112500", "094420.602500", "094422.092500", "094423.582500", "094425.072500", "094426.562500", "094428.052500", "094429.542500", "094431.032500", "094432.522500", "094434.012500", "094435.502500", "094436.992500", "094438.482500", "094439.972500", "094441.462500", "094442.952500", "094444.442500", "094445.932500", "094447.422500", "094448.912500", "094450.402500", "094451.892500", "094453.382500", "094454.872500", "094456.362500", "094457.852500", "094459.342500", "094500.832500", "094502.322500", "094503.812500", "094505.302500", "094506.792500", "094508.282500", "094509.772500", "094511.262500", "094512.752500", "094514.242500", "094515.732500", "094517.222500", "094518.712500", "094520.202500", "094521.692500", "094523.182500", "094524.672500", "094526.162500", "094527.652500", "094529.142500", "094530.632500", "094532.122500", "094533.612500", "094535.102500", "094536.592500", "094538.082500", "094539.572500", "094541.062500", "094542.552500", "094544.042500", "094545.532500", "094547.022500", "094548.512500", "094550.002500", "094551.492500", "094552.982500", "094554.472500", "094555.962500", "094557.452500", "094558.942500", "094600.432500", "094601.922500", "094603.412500", "094604.902500", "094606.392500", "094607.882500", "094609.372500", "094610.862500", "094612.352500", "094613.842500", "094615.332500", "094616.822500", "094618.312500", "094619.802500", "094621.292500", "094622.782500", "094624.272500", "094625.762500", "094627.252500", "094628.742500", "094630.232500", "094631.722500", "094633.212500", "094634.702500", "094636.192500", "094637.682500", "094639.172500", "094640.662500", "094642.152500", "094643.642500", "094645.132500", "094646.622500", "094648.112500", "094649.602500", "094651.092500", "094652.582500", "094654.072500", "094655.562500", "094657.052500", "094658.542500", "094700.032500", "094701.522500", "094703.012500", "094704.502500", "094705.992500", "094707.482500", "094708.972500", "094710.462500", "094711.952500", "094713.442500", "094714.932500", "094716.422500", "094717.912500", "094719.402500", "094720.892500", "094722.382500", "094723.872500", "094725.362500", "094726.852500", "094728.342500", "094729.832500", "094731.322500", "094732.812500", "094734.302500", "094735.792500", "094737.282500", "094738.772500", "094740.262500", "094741.752500", "094743.242500", "094744.732500", "094746.222500", "094747.712500", "094749.202500", "094750.692500", "094752.182500", "094753.672500", "094755.162500", "094756.652500", "094758.142500", "094759.632500", "094801.122500", "094802.612500", "094804.102500", "094805.592500", "094807.082500", "094808.572500", "094810.062500", "094811.552500", "094813.042500", "094814.532500", "094816.022500", "094817.512500", "094819.002500", "094820.492500", "094821.982500", "094823.472500", "094824.962500", "094826.452500", "094827.942500", "094829.432500", "094830.922500", "094832.412500", "094833.902500", "094835.392500", "094836.882500", "094838.372500", "094839.862500", "094841.352500", "094842.842500", "094844.332500", "094845.822500", "094847.312500", "094848.802500", "094850.292500", "094851.782500", "094853.272500", "094854.762500", "094856.252500", "094857.742500", "094859.232500", "094900.722500", "094902.212500", "094903.702500", "094905.192500", "094906.682500", "094908.172500", "094909.662500", "094911.152500", "094912.642500", "094914.132500", "094915.622500", "094917.112500", "094918.602500", "094920.092500", "094921.582500", "094923.072500", "094924.562500", "094926.052500", "094927.542500", "094929.032500", "094930.522500", "094932.012500", "094933.502500", "094934.992500", "094936.482500", "094937.972500", "094939.462500", "094940.952500", "094942.442500", "094943.932500", "094945.422500", "094946.912500", "094948.402500", "094949.892500", "094951.382500", "094952.872500", "094954.362500", "094955.852500", "094957.342500", "094958.832500", "095000.322500", "095001.812500", "095003.302500", "095004.792500", "095006.282500", "095007.772500", "095009.262500", "095010.752500", "095012.242500", "095013.732500", "095015.222500", "095016.712500", "095018.202500", "095019.692500", "095021.182500", "095022.672500", "095024.162500", "095025.652500", "095027.142500", "095028.632500", "095030.122500", "095031.612500", "095033.102500", "095034.592500", "095036.082500", "095037.572500", "095039.062500", "095040.552500", "095042.042500", "095043.532500", "095045.022500", "095046.512500", "095048.002500", "095049.492500", "095050.982500", "095052.472500", "095053.962500", "095055.452500", "095056.942500", "095058.432500", "095059.922500", "095101.412500", "095102.902500", "095104.392500", "095105.882500", "095107.372500", "095108.862500", "095110.352500", "095111.842500", "095113.332500", "095114.822500", "095116.312500", "095117.802500", "095119.292500", "095120.782500", "095122.272500", "095123.762500", "095125.252500", "095126.742500", "095128.232500", "095129.722500", "095131.212500", "095132.702500", "095134.192500", "095135.682500", "095137.172500", "095138.662500", "095140.152500", "095141.642500", "095143.132500", "095144.622500", "095146.112500", "095147.602500", "095149.092500", "095150.582500", "095152.072500", "095153.562500", "095155.052500", "095156.542500", "095158.032500", "095159.522500", "095201.012500", "095202.502500", "095203.992500", "095205.482500", "095206.972500", "095208.462500", "095209.952500", "095211.442500", "095212.932500", "095214.422500", "095215.912500", "095217.402500", "095218.892500", "095220.382500", "095221.872500", "095223.362500", "095224.852500", "095226.342500", "095227.832500", "095229.322500", "095230.812500", "095232.302500", "095233.792500", "095235.282500", "095236.772500", "095238.262500", "095239.752500", "095241.242500", "095242.732500", "095244.222500", "095245.712500", "095247.202500", "095248.692500", "095250.182500", "095251.672500", "095253.162500", "095254.652500", "095256.142500", "095257.632500", "095259.122500", "095300.612500", "095302.102500", "095303.592500", "095305.082500", "095306.572500", "095308.062500", "095309.552500", "095311.042500", "095312.532500", "095314.022500", "095315.512500", "095317.002500", "095318.492500", "095319.982500", "095321.472500", "095322.962500", "095324.452500", "095325.942500", "095327.432500", "095328.922500", "095330.412500", "095331.902500", "095333.392500", "095334.882500", "095336.372500", "095337.862500", "095339.352500", "095340.842500", "095342.332500", "095343.822500", "095345.312500", "095346.802500", "095348.292500", "095349.782500", "095351.272500", "095352.762500", "095354.252500", "095355.742500", "095357.232500", "095358.722500", "095400.212500", "095401.702500", "095403.192500", "095404.682500", "095406.172500", "095407.662500", "095409.152500", "095410.642500", "095412.132500", "095413.622500", "095415.112500", "095416.602500", "095418.092500", "095419.582500"],
      "ContentTime": ["094438.582000", "094438.585000", "094438.588000", "094438.591000", "094438.594000", "094438.597000", "094438.600000", "094438.602000", "094438.616000", "094438.619000", "094438.622000", "094438.625000", "094438.628000", "094438.630000", "094438.633000", "094438.636000", "094438.639000", "094438.642000", "094438.645000", "094438.648000", "094438.651000", "094438.653000", "094438.663000", "094438.666000", "094438.669000", "094438.672000", "094438.674000", "094438.677000", "094438.680000", "094438.683000", "094438.686000", "094438.689000", "094438.692000", "094438.695000", "094438.698000", "094438.701000", "094458.551000", "094458.554000", "094458.557000", "094458.560000", "094458.563000", "094458.565000", "094458.568000", "094458.571000", "094458.574000", "094458.577000", "094458.580000", "094458.583000", "094458.586000", "094458.589000", "094458.591000", "094458.609000", "094458.612000", "094458.615000", "094458.617000", "094458.620000", "094518.551000", "094518.554000", "094518.557000", "094518.560000", "094518.563000", "094518.566000", "094518.569000", "094518.572000", "094518.574000", "094518.577000", "094518.580000", "094518.583000", "094518.586000", "094518.589000", "094518.592000", "094518.595000", "094518.597000", "094518.600000", "094518.603000", "094518.606000", "094538.550000", "094538.553000", "094538.556000", "094538.559000", "094538.562000", "094538.565000", "094538.567000", "094538.570000", "094538.573000", "094538.576000", "094538.579000", "094538.582000", "094538.585000", "094538.588000", "094538.591000", "094538.593000", "094538.596000", "094538.599000", "094538.602000", "094538.605000", "094538.608000", "094618.550000", "094618.553000", "094618.556000", "094618.559000", "094618.562000", "094618.565000", "094618.568000", "094618.571000", "094618.573000", "094618.576000", "094618.579000", "094618.582000", "094618.585000", "094618.588000", "094618.591000", "094618.593000", "094618.596000", "094618.599000", "094618.602000", "094618.605000", "094618.608000", "094618.611000", "094618.614000", "094618.617000", "094618.619000", "094618.622000", "094618.625000", "094618.628000", "094618.631000", "094658.551000", "094658.554000", "094658.557000", "094658.560000", "094658.563000", "094658.566000", "094658.568000", "094658.571000", "094658.574000", "094658.577000", "094658.580000", "094658.583000", "094658.586000", "094658.589000", "094658.592000", "094658.595000", "094658.597000", "094658.600000", "094658.603000", "094658.606000", "094658.609000", "094658.612000", "094658.615000", "094658.618000", "094658.620000", "094658.623000", "094658.626000", "094738.551000", "094738.554000", "094738.557000", "094738.560000", "094738.563000", "094738.568000", "094738.571000", "094738.574000", "094738.576000", "094738.579000", "094738.582000", "094738.585000", "094738.588000", "094738.591000", "094738.594000", "094738.597000", "094738.600000", "094738.603000", "094738.606000", "094738.608000", "094738.611000", "094738.614000", "094738.617000", "094738.620000", "094738.623000", "094738.626000", "094738.629000", "094818.550000", "094818.553000", "094818.556000", "094818.559000", "094818.562000", "094818.565000", "094818.567000", "094818.570000", "094818.573000", "094818.576000", "094818.579000", "094818.582000", "094818.585000", "094818.588000", "094818.591000", "094818.594000", "094818.597000", "094818.600000", "094818.603000", "094818.605000", "094818.608000", "094818.611000", "094818.614000", "094818.617000", "094818.620000", "094818.623000", "094818.626000", "094858.551000", "094858.554000", "094858.557000", "094858.560000", "094858.563000", "094858.565000", "094858.568000", "094858.571000", "094858.574000", "094858.577000", "094858.580000", "094858.583000", "094858.586000", "094858.589000", "094858.592000", "094858.595000", "094858.597000", "094858.600000", "094858.603000", "094858.606000", "094858.609000", "094858.612000", "094858.614000", "094858.617000", "094858.620000", "094858.623000", "094858.626000", "094938.551000", "094938.554000", "094938.557000", "094938.560000", "094938.563000", "094938.566000", "094938.569000", "094938.571000", "094938.575000", "094938.577000", "094938.580000", "094938.596000", "094938.599000", "094938.614000", "094938.617000", "094938.620000", "094938.629000", "094938.632000", "094938.635000", "094938.638000", "094938.641000", "094938.644000", "094938.647000", "094938.650000", "094938.653000", "094938.656000", "095018.550000", "095018.553000", "095018.556000", "095018.559000", "095018.562000", "095018.565000", "095018.568000", "095018.571000", "095018.574000", "095018.576000", "095018.579000", "095018.582000", "095018.585000", "095018.588000", "095018.591000", "095018.594000", "095018.597000", "095018.600000", "095018.603000", "095018.606000", "095018.609000", "095018.611000", "095018.614000", "095018.617000", "095018.620000", "095018.623000", "095018.626000", "095058.550000", "095058.553000", "095058.556000", "095058.559000", "095058.562000", "095058.565000", "095058.568000", "095058.571000", "095058.574000", "095058.576000", "095058.579000", "095058.582000", "095058.585000", "095058.588000", "095058.591000", "095058.594000", "095058.597000", "095058.599000", "095058.602000", "095058.605000", "095058.608000", "095058.611000", "095058.614000", "095058.617000", "095058.620000", "095058.623000", "095058.626000", "095138.551000", "095138.554000", "095138.557000", "095138.560000", "095138.563000", "095138.565000", "095138.575000", "095138.578000", "095138.581000", "095138.583000", "095138.587000", "095138.589000", "095138.592000", "095138.595000", "095138.598000", "095138.601000", "095138.604000", "095138.607000", "095138.610000", "095138.613000", "095138.616000", "095138.618000", "095138.621000", "095138.624000", "095138.627000", "095138.630000", "095138.633000", "095218.551000", "095218.554000", "095218.557000", "095218.560000", "095218.563000", "095218.566000", "095218.569000", "095218.571000", "095218.574000", "095218.577000", "095218.580000", "095218.583000", "095218.586000", "095218.589000", "095218.592000", "095218.595000", "095218.598000", "095218.601000", "095218.603000", "095218.606000", "095218.609000", "095218.612000", "095218.615000", "095218.618000", "095218.621000", "095218.624000", "095218.627000", "095258.550000", "095258.553000", "095258.556000", "095258.559000", "095258.562000", "095258.565000", "095258.567000", "095258.570000", "095258.573000", "095258.576000", "095258.579000", "095258.582000", "095258.585000", "095258.588000", "095258.591000", "095258.594000", "095258.597000", "095258.600000", "095258.603000", "095258.605000", "095258.608000", "095258.611000", "095258.614000", "095258.617000", "095258.620000", "095258.623000", "095258.626000", "095338.551000", "095338.554000", "095338.557000", "095338.560000", "095338.563000", "095338.566000", "095338.569000", "095338.572000", "095338.574000", "095338.578000", "095338.580000", "095338.583000", "095338.586000", "095338.590000", "095338.593000", "095338.596000", "095338.599000", "095338.602000", "095338.605000", "095338.608000", "095338.611000", "095338.614000", "095338.616000", "095338.619000", "095338.622000", "095338.625000", "095418.551000", "095418.554000", "095418.557000", "095418.560000", "095418.563000", "095418.566000", "095418.569000", "095418.572000", "095418.575000", "095418.578000", "095418.581000", "095418.584000", "095418.587000", "095418.590000", "095418.592000", "095418.595000", "095418.598000", "095418.601000", "095418.604000", "095418.607000", "095418.610000", "095418.613000", "095418.616000", "095418.619000", "095418.621000", "095418.624000", "095418.627000", "095422.567000", "095422.570000", "095422.573000"],
