{
  "AcquisitionMatrixPE": 104,
  "AcquisitionNumber": 1,
  "AcquisitionTime": "10:07:39.560000",
  "BandwidthPerPixelPhaseEncode": 17.17,
  "BaseResolution": 104,
  "BodyPartExamined": "BRAIN",
  "CoilString": "HC1-7;NC1_2",
  "ConsistencyInfo": "N4_VE11C_LATEST_20160120",
  "ConversionSoftware": "dcm2niix",
  "ConversionSoftwareVersion": "v1.0.20190902",
  "DerivedVendorReportedEchoSpacing": 0.000560011,
  "DeviceSerialNumber": "167006",
  "DwellTime": 2.1e-06,
  "EchoTime": 0.037,
  "EchoTrainLength": 104,
  "EffectiveEchoSpacing": 0.000560011,
  "FlipAngle": 52,
  "ImageComments": "Unaliased_MB4_PE3_LB",
  "ImageOrientationPatientDICOM": [0.999052, 0.0179121, -0.0396847, -0.0259866, 0.97662, -0.213398],
  "ImageType": [
    "ORIGINAL",
    "PRIMARY",
    "M",
    "MB",
    "ND",
    "MOSAIC"
],
  "ImagingFrequency": 123.259,
  "InPlanePhaseEncodingDirectionDICOM": "COL",
  "InstitutionAddress": "Chemin_Queen-Mary_4565_Montreal_District_CA_H3W_1W5",
  "InstitutionName": "IUGM",
  "InstitutionalDepartmentName": "Department",
  "MRAcquisitionType": "2D",
  "MagneticFieldStrength": 3,
  "Manufacturer": "Siemens",
  "ManufacturersModelName": "Prisma_fit",
  "Modality": "MR",
  "MultibandAccelerationFactor": 4,
  "PartialFourier": 1,
  "PatientPosition": "HFS",
  "PercentPhaseFOV": 100,
  "PhaseEncodingDirection": "j",
  "PhaseEncodingSteps": 104,
  "PhaseResolution": 1,
  "PixelBandwidth": 2290,
  "ProcedureStepDescription": "games_shinobi",
  "ProtocolName": "func_task-shinobi_run-5",
  "PulseSequenceDetails": "%CustomerSeq%_cmrr_mbep2d_bold",
  "ReceiveCoilActiveElements": "HC1-7;NC1,2",
  "ReceiveCoilName": "HeadNeck_64",
  "ReconMatrixPE": 104,
  "RepetitionTime": 1.49,
  "SAR": 0.0260501,
  "ScanOptions": "FS",
  "ScanningSequence": "EP",
  "SequenceName": "epfid2d1_104",
  "SequenceVariant": "SK_SS",
  "SeriesDescription": "func_task-shinobi_run-5",
  "SeriesNumber": 17,
  "ShimSetting": [600, -7255, -8819, 598, -72, -276, 0, 75],
  "SliceThickness": 2,
  "SliceTiming": [0, 0.785, 0.0975, 0.8825, 0.1975, 0.98, 0.295, 1.0775, 0.3925, 1.1775, 0.49, 1.275, 0.5875, 1.3725, 0.6875, 0, 0.785, 0.0975, 0.8825, 0.1975, 0.98, 0.295, 1.0775, 0.3925, 1.1775, 0.49, 1.275, 0.5875, 1.3725, 0.6875, 0, 0.785, 0.0975, 0.8825, 0.1975, 0.98, 0.295, 1.0775, 0.3925, 1.1775, 0.49, 1.275, 0.5875, 1.3725, 0.6875, 0, 0.785, 0.0975, 0.8825, 0.1975, 0.98, 0.295, 1.0775, 0.3925, 1.1775, 0.49, 1.275, 0.5875, 1.3725, 0.6875],
  "SoftwareVersions": "syngo_MR_E11",
  "SpacingBetweenSlices": 2,
  "StationName": "MRC35049",
  "TaskName": "shinobi",
  "TotalReadoutTime": 0.0576811,
  "TxRefAmp": 209.692,
  "WipMemBlock": "11f18be7-9f35-4cf4-8eaa-29dfe07863d3||Sequence: R016 ve11c/master r/e634e98; Dec 19 2017 11:00:25 by eja",
  "dcmmeta_affine": [
    [-1.998103380203247, -0.05197310820221901, -0.06986884772777557, 107.58321380615234],
    [-0.03582410886883736, 1.9532392024993896, -0.42845475673675537, -73.24242401123047],
    [-0.07936934381723404, 0.42679694294929504, 1.9523178339004517, -44.34123611450195],
    [0.0, 0.0, 0.0, 1.0]
],
  "dcmmeta_reorient_transform": [
    [0.0, -1.0, 0.0, 103.0],
    [1.0, 0.0, 0.0, 0.0],
    [0.0, 0.0, 1.0, 0.0],
    [0.0, 0.0, 0.0, 1.0]
],
  "dcmmeta_shape": [104, 104, 60, 427],
  "dcmmeta_slice_dim": 2,
  "dcmmeta_version": 0.6,
  "global": {
    "const": {
      "AcquisitionMatrix": [104, 0, 0, 104],
      "AngioFlag": "N",
      "BitsAllocated": 16,
      "BitsStored": 16,
      "BodyPartExamined": "BRAIN",
      "Columns": 832,
      "EchoNumbers": 1,
      "EchoTime": 37.0,
      "EchoTrainLength": 104,
      "FlipAngle": 52.0,
      "HighBit": 15,
      "ImageOrientationPatient": [0.9990516929052, 0.01791205472184, -0.0396846720902, -0.025986554885, 0.97661957323626, -0.213398472668],
      "ImagePositionPatient": [-810.62140477851, -851.96023648873, 183.86337704611],
      "ImageType": [
        "ORIGINAL",
        "PRIMARY",
        "M",
        "MB",
        "ND",
        "MOSAIC"
],
      "ImagedNucleus": "1H",
      "ImagingFrequency": 123.258986,
      "InPlanePhaseEncodingDirection": "COL",
      "MRAcquisitionType": "2D",
      "MagneticFieldStrength": 3.0,
      "Manufacturer": "SIEMENS",
      "ManufacturerModelName": "Prisma_fit",
      "Modality": "MR",
      "NumberOfAverages": 1.0,
      "NumberOfPhaseEncodingSteps": 104,
      "PercentPhaseFieldOfView": 100.0,
      "PercentSampling": 100.0,
      "PerformedProcedureStepStartTime": "085853.536000",
      "PhotometricInterpretation": "MONOCHROME2",
      "PixelBandwidth": 2290.0,
      "PixelRepresentation": 0,
      "PixelSpacing": [2.0, 2.0],
      "ProtocolName": "func_task-shinobi_run-5",
      "RepetitionTime": 1490.0,
      "Rows": 832,
      "SAR": 0.02605006927007,
      "SamplesPerPixel": 1,
      "ScanOptions": "FS",
      "ScanningSequence": "EP",
      "SequenceName": "epfid2d1_104",
      "SequenceVariant": [
        "SK",
        "SS"
],
      "SeriesDescription": "func_task-shinobi_run-5",
      "SeriesNumber": 17,
      "SeriesTime": "100858.714000",
      "SliceLocation": -31.351920344529,
      "SliceThickness": 2.0,
      "SmallestImagePixelValue": 0,
      "SoftwareVersions": "syngo MR E11",
      "SpacingBetweenSlices": 2.0000000456311,
      "SpecificCharacterSet": "ISO_IR 100",
      "StudyID": "1",
      "StudyTime": "085853.422000",
      "TransmitCoilName": "Body",
      "VariableFlipAngleFlag": "N",
      "WindowCenterWidthExplanation": "Algo1",
      "dBdt": 0.0},
    "slices": {}
  },
  "time": {
    "samples": {
      "AcquisitionNumber": [1, 2, 3, 4, 5, 6, 7, 8, 9, 10, 11, 12, 13, 14, 15, 16, 17, 18, 19, 20, 21, 22, 23, 24, 25, 26, 27, 28, 29, 30, 31, 32, 33, 34, 35, 36, 37, 38, 39, 40, 41, 42, 43, 44, 45, 46, 47, 48, 49, 50, 51, 52, 53, 54, 55, 56, 57, 58, 59, 60, 61, 62, 63, 64, 65, 66, 67, 68, 69, 70, 71, 72, 73, 74, 75, 76, 77, 78, 79, 80, 81, 82, 83, 84, 85, 86, 87, 88, 89, 90, 91, 92, 93, 94, 95, 96, 97, 98, 99, 100, 101, 102, 103, 104, 105, 106, 107, 108, 109, 110, 111, 112, 113, 114, 115, 116, 117, 118, 119, 120, 121, 122, 123, 124, 125, 126, 127, 128, 129, 130, 131, 132, 133, 134, 135, 136, 137, 138, 139, 140, 141, 142, 143, 144, 145, 146, 147, 148, 149, 150, 151, 152, 153, 154, 155, 156, 157, 158, 159, 160, 161, 162, 163, 164, 165, 166, 167, 168, 169, 170, 171, 172, 173, 174, 175, 176, 177, 178, 179, 180, 181, 182, 183, 184, 185, 186, 187, 188, 189, 190, 191, 192, 193, 194, 195, 196, 197, 198, 199, 200, 201, 202, 203, 204, 205, 206, 207, 208, 209, 210, 211, 212, 213, 214, 215, 216, 217, 218, 219, 220, 221, 222, 223, 224, 225, 226, 227, 228, 229, 230, 231, 232, 233, 234, 235, 236, 237, 238, 239, 240, 241, 242, 243, 244, 245, 246, 247, 248, 249, 250, 251, 252, 253, 254, 255, 256, 257, 258, 259, 260, 261, 262, 263, 264, 265, 266, 267, 268, 269, 270, 271, 272, 273, 274, 275, 276, 277, 278, 279, 280, 281, 282, 283, 284, 285, 286, 287, 288, 289, 290, 291, 292, 293, 294, 295, 296, 297, 298, 299, 300, 301, 302, 303, 304, 305, 306, 307, 308, 309, 310, 311, 312, 313, 314, 315, 316, 317, 318, 319, 320, 321, 322, 323, 324, 325, 326, 327, 328, 329, 330, 331, 332, 333, 334, 335, 336, 337, 338, 339, 340, 341, 342, 343, 344, 345, 346, 347, 348, 349, 350, 351, 352, 353, 354, 355, 356, 357, 358, 359, 360, 361, 362, 363, 364, 365, 366, 367, 368, 369, 370, 371, 372, 373, 374, 375, 376, 377, 378, 379, 380, 381, 382, 383, 384, 385, 386, 387, 388, 389, 390, 391, 392, 393, 394, 395, 396, 397, 398, 399, 400, 401, 402, 403, 404, 405, 406, 407, 408, 409, 410, 411, 412, 413, 414, 415, 416, 417, 418, 419, 420, 421, 422, 423, 424, 425, 426, 427],
      "AcquisitionTime": ["100739.560000", "100741.050000", "100742.540000", "100744.030000", "100745.520000", "100747.010000", "100748.500000", "100749.990000", "100751.480000", "100752.970000", "100754.460000", "100755.950000", "100757.440000", "100758.930000", "100800.420000", "100801.910000", "100803.400000", "100804.890000", "100806.380000", "100807.870000", "100809.360000", "100810.850000", "100812.340000", "100813.830000", "100815.320000", "100816.810000", "100818.300000", "100819.790000", "100821.280000", "100822.770000", "100824.260000", "100825.750000", "100827.240000", "100828.730000", "100830.220000", "100831.710000", "100833.200000", "100834.690000", "100836.180000", "100837.670000", "100839.160000", "100840.650000", "100842.140000", "100843.630000", "100845.120000", "100846.610000", "100848.100000", "100849.590000", "100851.080000", "100852.570000", "100854.060000", "100855.550000", "100857.040000", "100858.530000", "100900.020000", "100901.510000", "100903.000000", "100904.490000", "100905.980000", "100907.470000", "100908.960000", "100910.450000", "100911.940000", "100913.430000", "100914.920000", "100916.410000", "100917.900000", "100919.390000", "100920.880000", "100922.370000", "100923.860000", "100925.350000", "100926.840000", "100928.330000", "100929.820000", "100931.310000", "100932.800000", "100934.290000", "100935.780000", "100937.270000", "100938.760000", "100940.250000", "100941.740000", "100943.230000", "100944.720000", "100946.210000", "100947.700000", "100949.190000", "100950.680000", "100952.170000", "100953.660000", "100955.150000", "100956.640000", "100958.130000", "100959.620000", "101001.110000", "101002.600000", "101004.090000", "101005.580000", "101007.070000", "101008.560000", "101010.050000", "101011.540000", "101013.030000", "101014.520000", "101016.010000", "101017.500000", "101018.990000", "101020.480000", "101021.970000", "101023.460000", "101024.950000", "101026.440000", "101027.930000", "101029.420000", "101030.910000", "101032.400000", "101033.890000", "101035.380000", "101036.870000", "101038.360000", "101039.850000", "101041.340000", "101042.830000", "101044.320000", "101045.810000", "101047.300000", "101048.790000", "101050.280000", "101051.770000", "101053.260000", "101054.750000", "101056.240000", "101057.730000", "101059.220000", "101100.710000", "101102.200000", "101103.690000", "101105.180000", "101106.670000", "101108.160000", "101109.650000", "101111.140000", "101112.630000", "101114.120000", "101115.610000", "101117.100000", "101118.590000", "101120.080000", "101121.570000", "101123.060000", "101124.550000", "101126.040000", "101127.530000", "101129.020000", "101130.510000", "101132.000000", "101133.490000", "101134.980000", "101136.470000", "101137.960000", "101139.450000", "101140.940000", "101142.430000", "101143.920000", "101145.410000", "101146.900000", "101148.390000", "101149.880000", "101151.370000", "101152.860000", "101154.350000", "101155.840000", "101157.330000", "101158.820000", "101200.310000", "101201.800000", "101203.290000", "101204.780000", "101206.270000", "101207.760000", "101209.250000", "101210.740000", "101212.230000", "101213.720000", "101215.210000", "101216.700000", "101218.190000", "101219.680000", "101221.170000", "101222.660000", "101224.150000", "101225.640000", "101227.130000", "101228.620000", "101230.110000", "101231.600000", "101233.090000", "101234.580000", "101236.070000", "101237.560000", "101239.050000", "101240.540000", "101242.030000", "101243.520000", "101245.010000", "101246.500000", "101247.990000", "101249.480000", "101250.970000", "101252.460000", "101253.950000", "101255.440000", "101256.930000", "101258.420000", "101259.910000", "101301.400000", "101302.890000", "101304.380000", "101305.870000", "101307.360000", "101308.850000", "101310.340000", "101311.830000", "101313.320000", "101314.810000", "101316.300000", "101317.790000", "101319.280000", "101320.770000", "101322.260000", "101323.750000", "101325.240000", "101326.730000", "101328.220000", "101329.710000", "101331.200000", "101332.690000", "101334.180000", "101335.670000", "101337.160000", "101338.650000", "101340.140000", "101341.630000", "101343.120000", "101344.610000", "101346.100000", "101347.590000", "101349.080000", "101350.570000", "101352.060000", "101353.550000", "101355.040000", "101356.530000", "101358.020000", "101359.510000", "101401.000000", "101402.490000", "101403.980000", "101405.470000", "101406.960000", "101408.450000", "101409.940000", "101411.430000", "101412.920000", "101414.410000", "101415.900000", "101417.390000", "101418.880000", "101420.370000", "101421.860000", "101423.350000", "101424.840000", "101426.330000", "101427.820000", "101429.310000", "101430.800000", "101432.290000", "101433.780000", "101435.270000", "101436.760000", "101438.250000", "101439.740000", "101441.230000", "101442.720000", "101444.210000", "101445.700000", "101447.190000", "101448.680000", "101450.170000", "101451.660000", "101453.150000", "101454.640000", "101456.130000", "101457.620000", "101459.110000", "101500.600000", "101502.090000", "101503.580000", "101505.070000", "101506.560000", "101508.050000", "101509.540000", "101511.030000", "101512.520000", "101514.010000", "101515.500000", "101516.990000", "101518.480000", "101519.970000", "101521.460000", "101522.950000", "101524.440000", "101525.930000", "101527.420000", "101528.910000", "101530.400000", "101531.890000", "101533.380000", "101534.870000", "101536.360000", "101537.850000", "101539.340000", "101540.830000", "101542.320000", "101543.810000", "101545.300000", "101546.790000", "101548.280000", "101549.770000", "101551.260000", "101552.750000", "101554.240000", "101555.730000", "101557.220000", "101558.710000", "101600.200000", "101601.690000", "101603.180000", "101604.670000", "101606.160000", "101607.650000", "101609.140000", "101610.630000", "101612.120000", "101613.610000", "101615.100000", "101616.590000", "101618.080000", "101619.570000", "101621.060000", "101622.550000", "101624.040000", "101625.530000", "101627.020000", "101628.510000", "101630.000000", "101631.490000", "101632.980000", "101634.470000", "101635.960000", "101637.450000", "101638.940000", "101640.430000", "101641.920000", "101643.410000", "101644.900000", "101646.390000", "101647.880000", "101649.370000", "101650.860000", "101652.350000", "101653.840000", "101655.330000", "101656.820000", "101658.310000", "101659.800000", "101701.290000", "101702.780000", "101704.270000", "101705.760000", "101707.250000", "101708.740000", "101710.230000", "101711.720000", "101713.210000", "101714.700000", "101716.190000", "101717.680000", "101719.170000", "101720.660000", "101722.150000", "101723.640000", "101725.130000", "101726.620000", "101728.110000", "101729.600000", "101731.090000", "101732.580000", "101734.070000", "101735.560000", "101737.050000", "101738.540000", "101740.030000", "101741.520000", "101743.010000", "101744.500000", "101745.990000", "101747.480000", "101748.970000", "101750.460000", "101751.950000", "101753.440000", "101754.930000", "101756.420000", "101757.910000", "101759.400000", "101800.890000", "101802.380000", "101803.870000", "101805.360000", "101806.850000", "101808.340000", "101809.830000", "101811.320000", "101812.810000", "101814.300000"],
      "ContentTime": ["100858.717000", "100858.720000", "100858.723000", "100858.726000", "100858.729000", "100858.732000", "100858.735000", "100858.738000", "100858.740000", "100858.743000", "100858.746000", "100858.768000", "100858.771000", "100858.774000", "100858.777000", "100858.780000", "100858.783000", "100858.786000", "100858.789000", "100858.792000", "100858.794000", "100858.797000", "100858.800000", "100858.803000", "100918.688000", "100918.691000", "100918.694000", "100918.697000", "100918.700000", "100918.703000", "100918.705000", "100918.708000", "100918.711000", "100918.714000", "100918.725000", "100918.728000", "100918.731000", "100918.734000", "100918.737000", "100918.740000", "100918.743000", "100918.745000", "100918.748000", "100918.751000", "100938.688000", "100938.691000", "100938.694000", "100938.697000", "100938.700000", "100938.703000", "100938.706000", "100938.709000", "100938.712000", "100938.719000", "100938.721000", "100938.724000", "100938.727000", "100938.730000", "100938.733000", "100938.736000", "100938.739000", "100938.742000", "100938.744000", "100938.747000", "100958.689000", "100958.692000", "100958.695000", "100958.698000", "100958.701000", "100958.703000", "100958.706000", "100958.709000", "100958.712000", "100958.715000", "100958.718000", "100958.721000", "100958.723000", "100958.726000", "100958.729000", "100958.732000", "100958.735000", "100958.738000", "100958.741000", "100958.744000", "100958.746000", "101018.689000", "101018.692000", "101018.695000", "101018.698000", "101018.701000", "101018.703000", "101018.706000", "101018.709000", "101018.712000", "101018.715000", "101018.718000", "101018.721000", "101018.724000", "101018.726000", "101018.729000", "101018.732000", "101018.735000", "101018.738000", "101018.741000", "101018.744000", "101058.689000", "101058.692000", "101058.695000", "101058.698000", "101058.701000", "101058.704000", "101058.707000", "101058.710000", "101058.713000", "101058.715000", "101058.718000", "101058.721000", "101058.724000", "101058.727000", "101058.730000", "101058.733000", "101058.736000", "101058.745000", "101058.748000", "101058.751000", "101058.754000", "101058.757000", "101058.759000", "101058.763000", "101058.766000", "101058.769000", "101058.772000", "101138.688000", "101138.691000", "101138.694000", "101138.697000", "101138.700000", "101138.702000", "101138.705000", "101138.708000", "101138.711000", "101138.714000", "101138.717000", "101138.720000", "101138.723000", "101138.726000", "101138.729000", "101138.731000", "101138.734000", "101138.737000", "101138.740000", "101138.743000", "101138.746000", "101138.749000", "101138.751000", "101138.754000", "101138.757000", "101138.760000", "101138.763000", "101218.689000", "101218.692000", "101218.695000", "101218.698000", "101218.701000", "101218.704000", "101218.707000", "101218.709000", "101218.712000", "101218.715000", "101218.718000", "101218.721000", "101218.724000", "101218.727000", "101218.730000", "101218.732000", "101218.735000", "101218.738000", "101218.741000", "101218.744000", "101218.747000", "101218.750000", "101218.753000", "101218.756000", "101218.758000", "101218.761000", "101218.764000", "101258.689000", "101258.692000", "101258.695000", "101258.698000", "101258.701000", "101258.704000", "101258.706000", "101258.709000", "101258.712000", "101258.715000", "101258.718000", "101258.721000", "101258.724000", "101258.727000", "101258.730000", "101258.732000", "101258.735000", "101258.738000", "101258.741000", "101258.744000", "101258.747000", "101258.750000", "101258.764000", "101258.766000", "101258.769000", "101258.772000", "101258.775000", "101338.688000", "101338.691000", "101338.694000", "101338.697000", "101338.700000", "101338.703000", "101338.705000", "101338.708000", "101338.711000", "101338.721000", "101338.723000", "101338.726000", "101338.729000", "101338.732000", "101338.735000", "101338.738000", "101338.741000", "101338.744000", "101338.747000", "101338.749000", "101338.752000", "101338.755000", "101338.758000", "101338.761000", "101338.764000", "101338.767000", "101338.770000", "101418.688000", "101418.691000", "101418.694000", "101418.697000", "101418.700000", "101418.702000", "101418.705000", "101418.708000", "101418.711000", "101418.714000", "101418.717000", "101418.723000", "101418.726000", "101418.729000", "101418.732000", "101418.735000", "101418.738000", "101418.741000", "101418.743000", "101418.746000", "101418.749000", "101418.752000", "101418.755000", "101418.758000", "101418.761000", "101418.764000", "101418.767000", "101458.689000", "101458.692000", "101458.695000", "101458.698000", "101458.701000", "101458.704000", "101458.707000", "101458.710000", "101458.712000", "101458.715000", "101458.718000", "101458.721000", "101458.724000", "101458.727000", "101458.730000", "101458.733000", "101458.735000", "101458.738000", "101458.741000", "101458.744000", "101458.747000", "101458.750000", "101458.753000", "101458.756000", "101458.759000", "101458.761000", "101458.764000", "101538.688000", "101538.691000", "101538.694000", "101538.697000", "101538.700000", "101538.703000", "101538.706000", "101538.709000", "101538.711000", "101538.714000", "101538.717000", "101538.720000", "101538.723000", "101538.726000", "101538.729000", "101538.732000", "101538.735000", "101538.737000", "101538.740000", "101538.743000", "101538.746000", "101538.749000", "101538.752000", "101538.755000", "101538.758000", "101538.761000", "101618.688000", "101618.691000", "101618.694000", "101618.697000", "101618.700000", "101618.703000", "101618.705000", "101618.709000", "101618.711000", "101618.714000", "101618.717000", "101618.720000", "101618.723000", "101618.726000", "101618.729000", "101618.732000", "101618.734000", "101618.737000", "101618.740000", "101618.743000", "101618.746000", "101618.749000", "101618.752000", "101618.755000", "101618.758000", "101618.760000", "101618.763000", "101658.689000", "101658.692000", "101658.695000", "101658.698000", "101658.701000", "101658.703000", "101658.706000", "101658.709000", "101658.712000", "101658.715000", "101658.718000", "101658.721000", "101658.724000", "101658.726000", "101658.729000", "101658.732000", "101658.735000", "101658.738000", "101658.741000", "101658.744000", "101658.747000", "101658.750000", "101658.753000", "101658.755000", "101658.758000", "101658.761000", "101658.764000", "101738.689000", "101738.692000", "101738.695000", "101738.698000", "101738.701000", "101738.704000", "101738.707000", "101738.710000", "101738.713000", "101738.716000", "101738.718000", "101738.721000", "101738.724000", "101738.727000", "101738.730000", "101738.733000", "101738.736000", "101738.739000", "101738.755000", "101738.758000", "101738.760000", "101738.763000", "101738.766000", "101738.769000", "101738.772000", "101738.775000", "101738.778000", "101816.959000", "101816.962000", "101816.965000", "101816.968000", "101816.971000", "101816.974000", "101816.977000", "101816.980000", "101816.983000", "101816.986000", "101816.989000", "101816.992000", "101816.995000", "101816.997000", "101817.001000", "101817.004000", "101817.007000", "101817.010000", "101817.013000", "101817.016000", "101817.019000", "101817.022000", "101817.025000", "101817.028000", "101817.031000", "101817.034000"],
      "InstanceCreationTime": ["100858.717000", "100858.720000", "100858.723000", "100858.726000", "100858.729000", "100858.732000", "100858.735000", "100858.738000", "100858.740000", "100858.743000", "100858.746000", "100858.768000", "100858.771000", "100858.774000", "100858.777000", "100858.780000", "100858.783000", "100858.786000", "100858.789000", "100858.792000", "100858.794000", "100858.797000", "100858.800000", "100858.803000", "100918.688000", "100918.691000", "100918.694000", "100918.697000", "100918.700000", "100918.703000", "100918.705000", "100918.708000", "100918.711000", "100918.714000", "100918.725000", "100918.728000", "100918.731000", "100918.734000", "100918.737000", "100918.740000", "100918.743000", "100918.745000", "100918.748000", "100918.751000", "100938.688000", "100938.691000", "100938.694000", "100938.697000", "100938.700000", "100938.703000", "100938.706000", "100938.709000", "100938.712000", "100938.719000", "100938.721000", "100938.724000", "100938.727000", "100938.730000", "100938.733000", "100938.736000", "100938.739000", "100938.742000", "100938.744000", "100938.747000", "100958.689000", "100958.692000", "100958.695000", "100958.698000", "100958.701000", "100958.703000", "100958.706000", "100958.709000", "100958.712000", "100958.715000", "100958.718000", "100958.721000", "100958.723000", "100958.726000", "100958.729000", "100958.732000", "100958.735000", "100958.738000", "100958.741000", "100958.744000", "100958.746000", "101018.689000", "101018.692000", "101018.695000", "101018.698000", "101018.701000", "101018.703000", "101018.706000", "101018.709000", "101018.712000", "101018.715000", "101018.718000", "101018.721000", "101018.724000", "101018.726000", "101018.729000", "101018.732000", "101018.735000", "101018.738000", "101018.741000", "101018.744000", "101058.689000", "101058.692000", "101058.695000", "101058.698000", "101058.701000", "101058.704000", "101058.707000", "101058.710000", "101058.713000", "101058.715000", "101058.718000", "101058.721000", "101058.724000", "101058.727000", "101058.730000", "101058.733000", "101058.736000", "101058.745000", "101058.748000", "101058.751000", "101058.754000", "101058.757000", "101058.759000", "101058.763000", "101058.766000", "101058.769000", "101058.772000", "101138.688000", "101138.691000", "101138.694000", "101138.697000", "101138.700000", "101138.702000", "101138.705000", "101138.708000", "101138.711000", "101138.714000", "101138.717000", "101138.720000", "101138.723000", "101138.726000", "101138.729000", "101138.731000", "101138.734000", "101138.737000", "101138.740000", "101138.743000", "101138.746000", "101138.749000", "101138.751000", "101138.754000", "101138.757000", "101138.760000", "101138.763000", "101218.689000", "101218.692000", "101218.695000", "101218.698000", "101218.701000", "101218.704000", "101218.707000", "101218.709000", "101218.712000", "101218.715000", "101218.718000", "101218.721000", "101218.724000", "101218.727000", "101218.730000", "101218.732000", "101218.735000", "101218.738000", "101218.741000", "101218.744000", "101218.747000", "101218.750000", "101218.753000", "101218.756000", "101218.758000", "101218.761000", "101218.764000", "101258.689000", "101258.692000", "101258.695000", "101258.698000", "101258.701000", "101258.704000", "101258.706000", "101258.709000", "101258.712000", "101258.715000", "101258.718000", "101258.721000", "101258.724000", "101258.727000", "101258.730000", "101258.732000", "101258.735000", "101258.738000", "101258.741000", "101258.744000", "101258.747000", "101258.750000", "101258.764000", "101258.766000", "101258.769000", "101258.772000", "101258.775000", "101338.688000", "101338.691000", "101338.694000", "101338.697000", "101338.700000", "101338.703000", "101338.705000", "101338.708000", "101338.711000", "101338.721000", "101338.723000", "101338.726000", "101338.729000", "101338.732000", "101338.735000", "101338.738000", "101338.741000", "101338.744000", "101338.747000", "101338.749000", "101338.752000", "101338.755000", "101338.758000", "101338.761000", "101338.764000", "101338.767000", "101338.770000", "101418.688000", "101418.691000", "101418.694000", "101418.697000", "101418.700000", "101418.702000", "101418.705000", "101418.708000", "101418.711000", "101418.714000", "101418.717000", "101418.723000", "101418.726000", "101418.729000", "101418.732000", "101418.735000", "101418.738000", "101418.741000", "101418.743000", "101418.746000", "101418.749000", "101418.752000", "101418.755000", "101418.758000", "101418.761000", "101418.764000", "101418.767000", "101458.689000", "101458.692000", "101458.695000", "101458.698000", "101458.701000", "101458.704000", "101458.707000", "101458.710000", "101458.712000", "101458.715000", "101458.718000", "101458.721000", "101458.724000", "101458.727000", "101458.730000", "101458.733000", "101458.735000", "101458.738000", "101458.741000", "101458.744000", "101458.747000", "101458.750000", "101458.753000", "101458.756000", "101458.759000", "101458.761000", "101458.764000", "101538.688000", "101538.691000", "101538.694000", "101538.697000", "101538.700000", "101538.703000", "101538.706000", "101538.709000", "101538.711000", "101538.714000", "101538.717000", "101538.720000", "101538.723000", "101538.726000", "101538.729000", "101538.732000", "101538.735000", "101538.737000", "101538.740000", "101538.743000", "101538.746000", "101538.749000", "101538.752000", "101538.755000", "101538.758000", "101538.761000", "101618.688000", "101618.691000", "101618.694000", "101618.697000", "101618.700000", "101618.703000", "101618.705000", "101618.709000", "101618.711000", "101618.714000", "101618.717000", "101618.720000", "101618.723000", "101618.726000", "101618.729000", "101618.732000", "101618.734000", "101618.737000", "101618.740000", "101618.743000", "101618.746000", "101618.749000", "101618.752000", "101618.755000", "101618.758000", "101618.760000", "101618.763000", "101658.689000", "101658.692000", "101658.695000", "101658.698000", "101658.701000", "101658.703000", "101658.706000", "101658.709000", "101658.712000", "101658.715000", "101658.718000", "101658.721000", "101658.724000", "101658.726000", "101658.729000", "101658.732000", "101658.735000", "101658.738000", "101658.741000", "101658.744000", "101658.747000", "101658.750000", "101658.753000", "101658.755000", "101658.758000", "101658.761000", "101658.764000", "101738.689000", "101738.692000", "101738.695000", "101738.698000", "101738.701000", "101738.704000", "101738.707000", "101738.710000", "101738.713000", "101738.716000", "101738.718000", "101738.721000", "101738.724000", "101738.727000", "101738.730000", "101738.733000", "101738.736000", "101738.739000", "101738.755000", "101738.758000", "101738.760000", "101738.763000", "101738.766000", "101738.769000", "101738.772000", "101738.775000", "101738.778000", "101816.959000", "101816.962000", "101816.965000", "101816.968000", "101816.971000", "101816.974000", "101816.977000", "101816.980000", "101816.983000", "101816.986000", "101816.989000", "101816.992000", "101816.995000", "101816.997000", "101817.001000", "101817.004000", "101817.007000", "101817.010000", "101817.013000", "101817.016000", "101817.019000", "101817.022000", "101817.025000", "101817.028000", "101817.031000", "101817.034000"],
