{
  "AcquisitionMatrixPE": 104,
  "AcquisitionNumber": 1,
  "AcquisitionTime": "10:16:54.382500",
  "BandwidthPerPixelPhaseEncode": 17.17,
  "BaseResolution": 104,
  "BodyPartExamined": "BRAIN",
  "CoilString": "HC1-7;NC1_2",
  "ConsistencyInfo": "N4_VE11C_LATEST_20160120",
  "ConversionSoftware": "dcm2niix",
  "ConversionSoftwareVersion": "v1.0.20190902",
  "DerivedVendorReportedEchoSpacing": 0.000560011,
  "DeviceSerialNumber": "167006",
  "DwellTime": 2.1e-06,
  "EchoTime": 0.037,
  "EchoTrainLength": 104,
  "EffectiveEchoSpacing": 0.000560011,
  "FlipAngle": 52,
  "ImageComments": "Unaliased_MB4_PE3_LB",
  "ImageOrientationPatientDICOM": [0.993975, 0.0875021, 0.066016, -0.0689824, 0.967411, -0.243634],
  "ImageType": [
    "ORIGINAL",
    "PRIMARY",
    "M",
    "MB",
    "ND",
    "MOSAIC"
],
  "ImagingFrequency": 123.259,
  "InPlanePhaseEncodingDirectionDICOM": "COL",
  "InstitutionAddress": "Chemin_Queen-Mary_4565_Montreal_District_CA_H3W_1W5",
  "InstitutionName": "IUGM",
  "InstitutionalDepartmentName": "Department",
  "MRAcquisitionType": "2D",
  "MagneticFieldStrength": 3,
  "Manufacturer": "Siemens",
  "ManufacturersModelName": "Prisma_fit",
  "Modality": "MR",
  "MultibandAccelerationFactor": 4,
  "PartialFourier": 1,
  "PatientPosition": "HFS",
  "PercentPhaseFOV": 100,
  "PhaseEncodingDirection": "j",
  "PhaseEncodingSteps": 104,
  "PhaseResolution": 1,
  "PixelBandwidth": 2290,
  "ProcedureStepDescription": "games_shinobi",
  "ProtocolName": "func_task-shinobi_run-5",
  "PulseSequenceDetails": "%CustomerSeq%_cmrr_mbep2d_bold",
  "ReceiveCoilActiveElements": "HC1-7;NC1,2",
  "ReceiveCoilName": "HeadNeck_64",
  "ReconMatrixPE": 104,
  "RepetitionTime": 1.49,
  "SAR": 0.0382674,
  "ScanOptions": "FS",
  "ScanningSequence": "EP",
  "SequenceName": "epfid2d1_104",
  "SequenceVariant": "SK_SS",
  "SeriesDescription": "func_task-shinobi_run-5",
  "SeriesNumber": 19,
  "ShimSetting": [643, -7217, -8833, 682, 105, -23, 104, 0],
  "SliceThickness": 2,
  "SliceTiming": [0, 0.7825, 0.0975, 0.88, 0.195, 0.98, 0.2925, 1.0775, 0.39, 1.175, 0.49, 1.2725, 0.5875, 1.37, 0.685, 0, 0.7825, 0.0975, 0.88, 0.195, 0.98, 0.2925, 1.0775, 0.39, 1.175, 0.49, 1.2725, 0.5875, 1.37, 0.685, 0, 0.7825, 0.0975, 0.88, 0.195, 0.98, 0.2925, 1.0775, 0.39, 1.175, 0.49, 1.2725, 0.5875, 1.37, 0.685, 0, 0.7825, 0.0975, 0.88, 0.195, 0.98, 0.2925, 1.0775, 0.39, 1.175, 0.49, 1.2725, 0.5875, 1.37, 0.685],
  "SoftwareVersions": "syngo_MR_E11",
  "SpacingBetweenSlices": 2,
  "StationName": "MRC35049",
  "TaskName": "shinobi",
  "TotalReadoutTime": 0.0576811,
  "TxRefAmp": 244.954,
  "WipMemBlock": "23f09782-48a4-4775-a196-f26c128b3cac||Sequence: R016 ve11c/master r/e634e98; Dec 19 2017 11:00:25 by eja",
  "dcmmeta_affine": [
    [-1.987949013710022, -0.1379648745059967, 0.17036618292331696, 108.84107208251953],
    [-0.17500421404838562, 1.9348220825195312, -0.4752230942249298, -57.774932861328125],
    [0.13203208148479462, 0.48726701736450195, 1.9352359771728516, -57.72041320800781],
    [0.0, 0.0, 0.0, 1.0]
],
  "dcmmeta_reorient_transform": [
    [0.0, -1.0, 0.0, 103.0],
    [1.0, 0.0, 0.0, 0.0],
    [0.0, 0.0, 1.0, 0.0],
    [0.0, 0.0, 0.0, 1.0]
],
  "dcmmeta_shape": [104, 104, 60, 466],
  "dcmmeta_slice_dim": 2,
  "dcmmeta_version": 0.6,
  "global": {
    "const": {
      "AcquisitionMatrix": [104, 0, 0, 104],
      "AngioFlag": "N",
      "BitsAllocated": 16,
      "BitsStored": 16,
      "BodyPartExamined": "BRAIN",
      "Columns": 832,
      "EchoNumbers": 1,
      "EchoTime": 37.0,
      "EchoTrainLength": 104,
      "FlipAngle": 52.0,
      "HighBit": 15,
      "ImageOrientationPatient": [0.99397447829642, 0.08750210601623, 0.06601604303566, -0.0689824385903, 0.96741104694557, -0.2436335145538],
      "ImagePositionPatient": [-768.02489797437, -909.48851879218, 121.77361070796],
      "ImageType": [
        "ORIGINAL",
        "PRIMARY",
        "M",
        "MB",
        "ND",
        "MOSAIC"
],
      "ImagedNucleus": "1H",
      "ImagingFrequency": 123.259093,
      "InPlanePhaseEncodingDirection": "COL",
      "MRAcquisitionType": "2D",
      "MagneticFieldStrength": 3.0,
      "Manufacturer": "SIEMENS",
      "ManufacturerModelName": "Prisma_fit",
      "Modality": "MR",
      "NumberOfAverages": 1.0,
      "NumberOfPhaseEncodingSteps": 104,
      "PercentPhaseFieldOfView": 100.0,
      "PercentSampling": 100.0,
      "PerformedProcedureStepStartTime": "085710.945000",
      "PhotometricInterpretation": "MONOCHROME2",
      "PixelBandwidth": 2290.0,
      "PixelRepresentation": 0,
      "PixelSpacing": [2.0, 2.0],
      "ProtocolName": "func_task-shinobi_run-5",
      "RepetitionTime": 1490.0,
      "Rows": 832,
      "SAR": 0.03826738157813,
      "SamplesPerPixel": 1,
      "ScanOptions": "FS",
      "ScanningSequence": "EP",
      "SequenceName": "epfid2d1_104",
      "SequenceVariant": [
        "SK",
        "SS"
],
      "SeriesDescription": "func_task-shinobi_run-5",
      "SeriesNumber": 19,
      "SeriesTime": "101823.132000",
      "SliceLocation": -32.851899380965,
      "SliceThickness": 2.0,
      "SmallestImagePixelValue": 0,
      "SoftwareVersions": "syngo MR E11",
      "SpacingBetweenSlices": 1.9999999776768,
      "SpecificCharacterSet": "ISO_IR 100",
      "StudyID": "1",
      "StudyTime": "085710.797000",
      "TransmitCoilName": "Body",
      "VariableFlipAngleFlag": "N",
      "WindowCenterWidthExplanation": "Algo1",
      "dBdt": 0.0},
    "slices": {}
  },
  "time": {
    "samples": {
      "AcquisitionNumber": [1, 2, 3, 4, 5, 6, 7, 8, 9, 10, 11, 12, 13, 14, 15, 16, 17, 18, 19, 20, 21, 22, 23, 24, 25, 26, 27, 28, 29, 30, 31, 32, 33, 34, 35, 36, 37, 38, 39, 40, 41, 42, 43, 44, 45, 46, 47, 48, 49, 50, 51, 52, 53, 54, 55, 56, 57, 58, 59, 60, 61, 62, 63, 64, 65, 66, 67, 68, 69, 70, 71, 72, 73, 74, 75, 76, 77, 78, 79, 80, 81, 82, 83, 84, 85, 86, 87, 88, 89, 90, 91, 92, 93, 94, 95, 96, 97, 98, 99, 100, 101, 102, 103, 104, 105, 106, 107, 108, 109, 110, 111, 112, 113, 114, 115, 116, 117, 118, 119, 120, 121, 122, 123, 124, 125, 126, 127, 128, 129, 130, 131, 132, 133, 134, 135, 136, 137, 138, 139, 140, 141, 142, 143, 144, 145, 146, 147, 148, 149, 150, 151, 152, 153, 154, 155, 156, 157, 158, 159, 160, 161, 162, 163, 164, 165, 166, 167, 168, 169, 170, 171, 172, 173, 174, 175, 176, 177, 178, 179, 180, 181, 182, 183, 184, 185, 186, 187, 188, 189, 190, 191, 192, 193, 194, 195, 196, 197, 198, 199, 200, 201, 202, 203, 204, 205, 206, 207, 208, 209, 210, 211, 212, 213, 214, 215, 216, 217, 218, 219, 220, 221, 222, 223, 224, 225, 226, 227, 228, 229, 230, 231, 232, 233, 234, 235, 236, 237, 238, 239, 240, 241, 242, 243, 244, 245, 246, 247, 248, 249, 250, 251, 252, 253, 254, 255, 256, 257, 258, 259, 260, 261, 262, 263, 264, 265, 266, 267, 268, 269, 270, 271, 272, 273, 274, 275, 276, 277, 278, 279, 280, 281, 282, 283, 284, 285, 286, 287, 288, 289, 290, 291, 292, 293, 294, 295, 296, 297, 298, 299, 300, 301, 302, 303, 304, 305, 306, 307, 308, 309, 310, 311, 312, 313, 314, 315, 316, 317, 318, 319, 320, 321, 322, 323, 324, 325, 326, 327, 328, 329, 330, 331, 332, 333, 334, 335, 336, 337, 338, 339, 340, 341, 342, 343, 344, 345, 346, 347, 348, 349, 350, 351, 352, 353, 354, 355, 356, 357, 358, 359, 360, 361, 362, 363, 364, 365, 366, 367, 368, 369, 370, 371, 372, 373, 374, 375, 376, 377, 378, 379, 380, 381, 382, 383, 384, 385, 386, 387, 388, 389, 390, 391, 392, 393, 394, 395, 396, 397, 398, 399, 400, 401, 402, 403, 404, 405, 406, 407, 408, 409, 410, 411, 412, 413, 414, 415, 416, 417, 418, 419, 420, 421, 422, 423, 424, 425, 426, 427, 428, 429, 430, 431, 432, 433, 434, 435, 436, 437, 438, 439, 440, 441, 442, 443, 444, 445, 446, 447, 448, 449, 450, 451, 452, 453, 454, 455, 456, 457, 458, 459, 460, 461, 462, 463, 464, 465, 466],
      "AcquisitionTime": ["101654.382500", "101655.872500", "101657.362500", "101658.852500", "101700.342500", "101701.832500", "101703.322500", "101704.812500", "101706.302500", "101707.792500", "101709.282500", "101710.772500", "101712.262500", "101713.752500", "101715.242500", "101716.732500", "101718.222500", "101719.712500", "101721.202500", "101722.692500", "101724.182500", "101725.672500", "101727.162500", "101728.652500", "101730.142500", "101731.632500", "101733.122500", "101734.612500", "101736.102500", "101737.592500", "101739.082500", "101740.572500", "101742.062500", "101743.552500", "101745.042500", "101746.532500", "101748.022500", "101749.512500", "101751.002500", "101752.492500", "101753.982500", "101755.472500", "101756.962500", "101758.452500", "101759.942500", "101801.432500", "101802.922500", "101804.412500", "101805.902500", "101807.392500", "101808.882500", "101810.372500", "101811.862500", "101813.352500", "101814.842500", "101816.332500", "101817.822500", "101819.312500", "101820.802500", "101822.292500", "101823.782500", "101825.272500", "101826.762500", "101828.252500", "101829.742500", "101831.232500", "101832.722500", "101834.212500", "101835.702500", "101837.192500", "101838.682500", "101840.172500", "101841.662500", "101843.152500", "101844.642500", "101846.132500", "101847.622500", "101849.112500", "101850.602500", "101852.092500", "101853.582500", "101855.072500", "101856.562500", "101858.052500", "101859.542500", "101901.032500", "101902.522500", "101904.012500", "101905.502500", "101906.992500", "101908.482500", "101909.972500", "101911.462500", "101912.952500", "101914.442500", "101915.932500", "101917.422500", "101918.912500", "101920.402500", "101921.892500", "101923.382500", "101924.872500", "101926.362500", "101927.852500", "101929.342500", "101930.832500", "101932.322500", "101933.812500", "101935.302500", "101936.792500", "101938.282500", "101939.772500", "101941.262500", "101942.752500", "101944.242500", "101945.732500", "101947.222500", "101948.712500", "101950.202500", "101951.692500", "101953.182500", "101954.672500", "101956.162500", "101957.652500", "101959.142500", "102000.632500", "102002.122500", "102003.612500", "102005.102500", "102006.592500", "102008.082500", "102009.572500", "102011.062500", "102012.552500", "102014.042500", "102015.532500", "102017.022500", "102018.512500", "102020.002500", "102021.492500", "102022.982500", "102024.472500", "102025.962500", "102027.452500", "102028.942500", "102030.432500", "102031.922500", "102033.412500", "102034.902500", "102036.392500", "102037.882500", "102039.372500", "102040.862500", "102042.352500", "102043.842500", "102045.332500", "102046.822500", "102048.312500", "102049.802500", "102051.292500", "102052.782500", "102054.272500", "102055.762500", "102057.252500", "102058.742500", "102100.232500", "102101.722500", "102103.212500", "102104.702500", "102106.192500", "102107.682500", "102109.172500", "102110.662500", "102112.152500", "102113.642500", "102115.132500", "102116.622500", "102118.112500", "102119.602500", "102121.092500", "102122.582500", "102124.072500", "102125.562500", "102127.052500", "102128.542500", "102130.032500", "102131.522500", "102133.012500", "102134.502500", "102135.992500", "102137.482500", "102138.972500", "102140.462500", "102141.952500", "102143.442500", "102144.932500", "102146.422500", "102147.912500", "102149.402500", "102150.892500", "102152.382500", "102153.872500", "102155.362500", "102156.852500", "102158.342500", "102159.832500", "102201.322500", "102202.812500", "102204.302500", "102205.792500", "102207.282500", "102208.772500", "102210.262500", "102211.752500", "102213.242500", "102214.732500", "102216.222500", "102217.712500", "102219.202500", "102220.692500", "102222.182500", "102223.672500", "102225.162500", "102226.652500", "102228.142500", "102229.632500", "102231.122500", "102232.612500", "102234.102500", "102235.592500", "102237.082500", "102238.572500", "102240.062500", "102241.552500", "102243.042500", "102244.532500", "102246.022500", "102247.512500", "102249.002500", "102250.492500", "102251.982500", "102253.472500", "102254.962500", "102256.452500", "102257.942500", "102259.432500", "102300.922500", "102302.412500", "102303.902500", "102305.392500", "102306.882500", "102308.372500", "102309.862500", "102311.352500", "102312.842500", "102314.332500", "102315.822500", "102317.312500", "102318.802500", "102320.292500", "102321.782500", "102323.272500", "102324.762500", "102326.252500", "102327.742500", "102329.232500", "102330.722500", "102332.212500", "102333.702500", "102335.192500", "102336.682500", "102338.172500", "102339.662500", "102341.152500", "102342.642500", "102344.132500", "102345.622500", "102347.112500", "102348.602500", "102350.092500", "102351.582500", "102353.072500", "102354.562500", "102356.052500", "102357.542500", "102359.032500", "102400.522500", "102402.012500", "102403.502500", "102404.992500", "102406.482500", "102407.972500", "102409.462500", "102410.952500", "102412.442500", "102413.932500", "102415.422500", "102416.912500", "102418.402500", "102419.892500", "102421.382500", "102422.872500", "102424.362500", "102425.852500", "102427.342500", "102428.832500", "102430.322500", "102431.812500", "102433.302500", "102434.792500", "102436.282500", "102437.772500", "102439.262500", "102440.752500", "102442.242500", "102443.732500", "102445.222500", "102446.712500", "102448.202500", "102449.692500", "102451.182500", "102452.672500", "102454.162500", "102455.652500", "102457.142500", "102458.632500", "102500.122500", "102501.612500", "102503.102500", "102504.592500", "102506.082500", "102507.572500", "102509.062500", "102510.552500", "102512.042500", "102513.532500", "102515.022500", "102516.512500", "102518.002500", "102519.492500", "102520.982500", "102522.472500", "102523.962500", "102525.452500", "102526.942500", "102528.432500", "102529.922500", "102531.412500", "102532.902500", "102534.392500", "102535.882500", "102537.372500", "102538.862500", "102540.352500", "102541.842500", "102543.332500", "102544.822500", "102546.312500", "102547.802500", "102549.292500", "102550.782500", "102552.272500", "102553.762500", "102555.252500", "102556.742500", "102558.232500", "102559.722500", "102601.212500", "102602.702500", "102604.192500", "102605.682500", "102607.172500", "102608.662500", "102610.152500", "102611.642500", "102613.132500", "102614.622500", "102616.112500", "102617.602500", "102619.092500", "102620.582500", "102622.072500", "102623.562500", "102625.052500", "102626.542500", "102628.032500", "102629.522500", "102631.012500", "102632.502500", "102633.992500", "102635.482500", "102636.972500", "102638.462500", "102639.952500", "102641.442500", "102642.932500", "102644.422500", "102645.912500", "102647.402500", "102648.892500", "102650.382500", "102651.872500", "102653.362500", "102654.852500", "102656.342500", "102657.832500", "102659.322500", "102700.812500", "102702.302500", "102703.792500", "102705.282500", "102706.772500", "102708.262500", "102709.752500", "102711.242500", "102712.732500", "102714.222500", "102715.712500", "102717.202500", "102718.692500", "102720.182500", "102721.672500", "102723.162500", "102724.652500", "102726.142500", "102727.632500", "102729.122500", "102730.612500", "102732.102500", "102733.592500", "102735.082500", "102736.572500", "102738.062500", "102739.552500", "102741.042500", "102742.532500", "102744.022500", "102745.512500", "102747.002500", "102748.492500", "102749.982500", "102751.472500", "102752.962500", "102754.452500", "102755.942500", "102757.432500", "102758.922500", "102800.412500", "102801.902500", "102803.392500", "102804.882500", "102806.372500", "102807.862500", "102809.352500", "102810.842500", "102812.332500", "102813.822500", "102815.312500", "102816.802500", "102818.292500", "102819.782500", "102821.272500", "102822.762500", "102824.252500", "102825.742500", "102827.232500"],
      "ContentTime": ["101823.135000", "101823.139000", "101823.142000", "101823.145000", "101823.148000", "101823.151000", "101823.154000", "101823.157000", "101823.160000", "101823.163000", "101823.166000", "101823.169000", "101823.172000", "101823.175000", "101823.178000", "101823.181000", "101823.189000", "101823.192000", "101823.195000", "101823.198000", "101823.201000", "101823.204000", "101823.207000", "101823.210000", "101823.213000", "101823.216000", "101823.218000", "101823.221000", "101823.224000", "101823.227000", "101823.230000", "101823.233000", "101823.236000", "101823.242000", "101823.245000", "101843.100000", "101843.110000", "101843.113000", "101843.116000", "101843.119000", "101843.121000", "101843.124000", "101843.127000", "101843.130000", "101843.133000", "101843.136000", "101843.139000", "101843.142000", "101843.145000", "101843.148000", "101843.151000", "101843.154000", "101843.157000", "101843.160000", "101843.169000", "101903.101000", "101903.104000", "101903.107000", "101903.110000", "101903.113000", "101903.116000", "101903.119000", "101903.121000", "101903.125000", "101903.128000", "101903.130000", "101903.133000", "101903.136000", "101903.139000", "101903.142000", "101903.145000", "101903.148000", "101903.151000", "101903.154000", "101903.156000", "101923.101000", "101923.105000", "101923.118000", "101923.121000", "101923.124000", "101923.127000", "101923.130000", "101923.133000", "101923.136000", "101923.139000", "101923.142000", "101923.145000", "101923.148000", "101923.150000", "101923.154000", "101923.157000", "101923.159000", "101923.162000", "101923.165000", "101923.168000", "102003.100000", "102003.104000", "102003.107000", "102003.110000", "102003.113000", "102003.116000", "102003.119000", "102003.122000", "102003.125000", "102003.128000", "102003.131000", "102003.134000", "102003.137000", "102003.140000", "102003.143000", "102003.148000", "102003.151000", "102003.154000", "102003.157000", "102003.160000", "102003.163000", "102003.166000", "102003.169000", "102003.172000", "102003.174000", "102003.177000", "102003.180000", "102003.183000", "102003.186000", "102003.189000", "102043.100000", "102043.103000", "102043.106000", "102043.109000", "102043.112000", "102043.115000", "102043.118000", "102043.121000", "102043.124000", "102043.127000", "102043.130000", "102043.133000", "102043.136000", "102043.139000", "102043.142000", "102043.144000", "102043.148000", "102043.151000", "102043.154000", "102043.156000", "102043.159000", "102043.162000", "102043.165000", "102043.168000", "102043.171000", "102043.174000", "102043.177000", "102123.101000", "102123.104000", "102123.107000", "102123.110000", "102123.113000", "102123.116000", "102123.119000", "102123.122000", "102123.125000", "102123.128000", "102123.131000", "102123.134000", "102123.137000", "102123.139000", "102123.142000", "102123.145000", "102123.148000", "102123.151000", "102123.154000", "102123.157000", "102123.160000", "102123.163000", "102123.173000", "102123.176000", "102123.179000", "102123.182000", "102123.185000", "102203.100000", "102203.103000", "102203.106000", "102203.109000", "102203.112000", "102203.115000", "102203.118000", "102203.121000", "102203.124000", "102203.127000", "102203.130000", "102203.133000", "102203.136000", "102203.139000", "102203.142000", "102203.145000", "102203.148000", "102203.151000", "102203.154000", "102203.157000", "102203.160000", "102203.162000", "102203.165000", "102203.168000", "102203.171000", "102203.174000", "102203.177000", "102243.100000", "102243.103000", "102243.106000", "102243.109000", "102243.112000", "102243.115000", "102243.118000", "102243.121000", "102243.124000", "102243.127000", "102243.130000", "102243.133000", "102243.136000", "102243.139000", "102243.142000", "102243.145000", "102243.148000", "102243.151000", "102243.154000", "102243.156000", "102243.159000", "102243.163000", "102243.165000", "102243.168000", "102243.171000", "102243.174000", "102243.177000", "102323.100000", "102323.103000", "102323.106000", "102323.109000", "102323.112000", "102323.115000", "102323.118000", "102323.120000", "102323.124000", "102323.127000", "102323.129000", "102323.132000", "102323.135000", "102323.138000", "102323.141000", "102323.144000", "102323.147000", "102323.150000", "102323.153000", "102323.156000", "102323.159000", "102323.162000", "102323.165000", "102323.168000", "102323.171000", "102323.174000", "102323.177000", "102343.101000", "102343.104000", "102343.107000", "102343.110000", "102343.113000", "102343.116000", "102343.119000", "102343.122000", "102343.125000", "102343.128000", "102343.131000", "102343.134000", "102343.137000", "102423.100000", "102423.122000", "102423.125000", "102423.128000", "102423.131000", "102423.134000", "102423.137000", "102423.140000", "102423.143000", "102423.146000", "102423.149000", "102423.152000", "102423.155000", "102423.158000", "102423.161000", "102423.164000", "102423.167000", "102423.170000", "102423.173000", "102423.176000", "102423.179000", "102423.182000", "102423.185000", "102423.187000", "102423.191000", "102423.193000", "102423.196000", "102503.100000", "102503.103000", "102503.106000", "102503.109000", "102503.112000", "102503.115000", "102503.118000", "102503.121000", "102503.124000", "102503.127000", "102503.130000", "102503.133000", "102503.136000", "102503.139000", "102503.145000", "102503.148000", "102503.151000", "102503.154000", "102503.157000", "102503.160000", "102503.163000", "102503.166000", "102503.169000", "102503.172000", "102503.175000", "102503.178000", "102503.181000", "102543.100000", "102543.103000", "102543.106000", "102543.109000", "102543.112000", "102543.115000", "102543.118000", "102543.121000", "102543.124000", "102543.127000", "102543.130000", "102543.133000", "102543.136000", "102543.139000", "102543.142000", "102543.145000", "102543.148000", "102543.151000", "102543.154000", "102543.157000", "102543.159000", "102543.162000", "102543.165000", "102543.168000", "102543.171000", "102543.174000", "102543.177000", "102623.101000", "102623.111000", "102623.114000", "102623.117000", "102623.120000", "102623.123000", "102623.126000", "102623.129000", "102623.132000", "102623.135000", "102623.138000", "102623.141000", "102623.144000", "102623.147000", "102623.150000", "102623.153000", "102623.156000", "102623.159000", "102623.162000", "102623.165000", "102623.168000", "102623.171000", "102623.174000", "102623.177000", "102623.180000", "102623.183000", "102623.186000", "102703.100000", "102703.103000", "102703.106000", "102703.109000", "102703.112000", "102703.115000", "102703.118000", "102703.123000", "102703.126000", "102703.129000", "102703.132000", "102703.135000", "102703.138000", "102703.142000", "102703.145000", "102703.148000", "102703.151000", "102703.154000", "102703.157000", "102703.160000", "102703.163000", "102703.166000", "102703.169000", "102703.172000", "102703.175000", "102703.178000", "102743.100000", "102743.103000", "102743.106000", "102743.109000", "102743.112000", "102743.115000", "102743.118000", "102743.121000", "102743.124000", "102743.127000", "102743.130000", "102743.133000", "102743.136000", "102743.139000", "102743.142000", "102743.145000", "102743.148000", "102743.151000", "102743.154000", "102743.157000", "102743.160000", "102743.163000", "102743.166000", "102743.169000", "102743.172000", "102743.174000", "102743.178000", "102823.101000", "102823.104000", "102823.107000", "102823.110000", "102823.113000", "102823.116000", "102823.119000", "102823.122000", "102823.125000", "102823.128000", "102823.131000", "102823.134000", "102823.137000", "102823.140000", "102823.143000", "102823.146000", "102823.149000", "102823.152000", "102823.155000", "102823.158000", "102823.161000", "102823.164000", "102823.167000", "102823.170000", "102823.173000", "102823.176000", "102823.179000", "102831.003000", "102831.006000", "102831.009000", "102831.012000", "102831.015000"],
