{
  "AcquisitionMatrixPE": 104,
  "AcquisitionNumber": 1,
  "AcquisitionTime": "09:28:52.095000",
  "BandwidthPerPixelPhaseEncode": 17.17,
  "BaseResolution": 104,
  "BodyPartExamined": "BRAIN",
  "CoilString": "HC1-7;NC1_2",
  "ConsistencyInfo": "N4_VE11C_LATEST_20160120",
  "ConversionSoftware": "dcm2niix",
  "ConversionSoftwareVersion": "v1.0.20190902",
  "DerivedVendorReportedEchoSpacing": 0.000560011,
  "DeviceSerialNumber": "167006",
  "DwellTime": 2.1e-06,
  "EchoTime": 0.037,
  "EchoTrainLength": 104,
  "EffectiveEchoSpacing": 0.000560011,
  "FlipAngle": 52,
  "ImageComments": "Unaliased_MB4_PE3_LB",
  "ImageOrientationPatientDICOM": [0.993975, 0.0875021, 0.066016, -0.0689824, 0.967411, -0.243634],
  "ImageType": [
    "ORIGINAL",
    "PRIMARY",
    "M",
    "MB",
    "ND",
    "MOSAIC"
],
  "ImagingFrequency": 123.259,
  "InPlanePhaseEncodingDirectionDICOM": "COL",
  "InstitutionAddress": "Chemin_Queen-Mary_4565_Montreal_District_CA_H3W_1W5",
  "InstitutionName": "IUGM",
  "InstitutionalDepartmentName": "Department",
  "MRAcquisitionType": "2D",
  "MagneticFieldStrength": 3,
  "Manufacturer": "Siemens",
  "ManufacturersModelName": "Prisma_fit",
  "Modality": "MR",
  "MultibandAccelerationFactor": 4,
  "PartialFourier": 1,
  "PatientPosition": "HFS",
  "PercentPhaseFOV": 100,
  "PhaseEncodingDirection": "j",
  "PhaseEncodingSteps": 104,
  "PhaseResolution": 1,
  "PixelBandwidth": 2290,
  "ProcedureStepDescription": "games_shinobi",
  "ProtocolName": "func_task-shinobi_run-1",
  "PulseSequenceDetails": "%CustomerSeq%_cmrr_mbep2d_bold",
  "ReceiveCoilActiveElements": "HC1-7;NC1,2",
  "ReceiveCoilName": "HeadNeck_64",
  "ReconMatrixPE": 104,
  "RepetitionTime": 1.49,
  "SAR": 0.0382674,
  "ScanOptions": "FS",
  "ScanningSequence": "EP",
  "SequenceName": "epfid2d1_104",
  "SequenceVariant": "SK_SS",
  "SeriesDescription": "func_task-shinobi_run-1",
  "SeriesNumber": 11,
  "ShimSetting": [643, -7217, -8833, 682, 105, -23, 104, 0],
  "SliceThickness": 2,
  "SliceTiming": [0, 0.7825, 0.0975, 0.88, 0.195, 0.98, 0.2925, 1.0775, 0.39, 1.175, 0.49, 1.2725, 0.5875, 1.37, 0.685, 0, 0.7825, 0.0975, 0.88, 0.195, 0.98, 0.2925, 1.0775, 0.39, 1.175, 0.49, 1.2725, 0.5875, 1.37, 0.685, 0, 0.7825, 0.0975, 0.88, 0.195, 0.98, 0.2925, 1.0775, 0.39, 1.175, 0.49, 1.2725, 0.5875, 1.37, 0.685, 0, 0.7825, 0.0975, 0.88, 0.195, 0.98, 0.2925, 1.0775, 0.39, 1.175, 0.49, 1.2725, 0.5875, 1.37, 0.685],
  "SoftwareVersions": "syngo_MR_E11",
  "SpacingBetweenSlices": 2,
  "StationName": "MRC35049",
  "TaskName": "shinobi",
  "TotalReadoutTime": 0.0576811,
  "TxRefAmp": 244.954,
  "WipMemBlock": "2868ee97-1f58-4a8e-b7df-fec62408175c||Sequence: R016 ve11c/master r/e634e98; Dec 19 2017 11:00:25 by eja",
  "dcmmeta_affine": [
    [-1.987949013710022, -0.1379648745059967, 0.17036618292331696, 108.84107208251953],
    [-0.17500421404838562, 1.9348220825195312, -0.4752230942249298, -57.774932861328125],
    [0.13203208148479462, 0.48726701736450195, 1.9352359771728516, -57.72041320800781],
    [0.0, 0.0, 0.0, 1.0]
],
  "dcmmeta_reorient_transform": [
    [0.0, -1.0, 0.0, 103.0],
    [1.0, 0.0, 0.0, 0.0],
    [0.0, 0.0, 1.0, 0.0],
    [0.0, 0.0, 0.0, 1.0]
],
  "dcmmeta_shape": [104, 104, 60, 469],
  "dcmmeta_slice_dim": 2,
  "dcmmeta_version": 0.6,
  "global": {
    "const": {
      "AcquisitionMatrix": [104, 0, 0, 104],
      "AngioFlag": "N",
      "BitsAllocated": 16,
      "BitsStored": 16,
      "BodyPartExamined": "BRAIN",
      "Columns": 832,
      "EchoNumbers": 1,
      "EchoTime": 37.0,
      "EchoTrainLength": 104,
      "FlipAngle": 52.0,
      "HighBit": 15,
      "ImageOrientationPatient": [0.99397447829642, 0.08750210601623, 0.06601604303566, -0.0689824385903, 0.96741104694557, -0.2436335145538],
      "ImagePositionPatient": [-768.02489797437, -909.48851879218, 121.77361070796],
      "ImageType": [
        "ORIGINAL",
        "PRIMARY",
        "M",
        "MB",
        "ND",
        "MOSAIC"
],
      "ImagedNucleus": "1H",
      "ImagingFrequency": 123.259075,
      "InPlanePhaseEncodingDirection": "COL",
      "MRAcquisitionType": "2D",
      "MagneticFieldStrength": 3.0,
      "Manufacturer": "SIEMENS",
      "ManufacturerModelName": "Prisma_fit",
      "Modality": "MR",
      "NumberOfAverages": 1.0,
      "NumberOfPhaseEncodingSteps": 104,
      "PercentPhaseFieldOfView": 100.0,
      "PercentSampling": 100.0,
      "PerformedProcedureStepStartTime": "085710.945000",
      "PhotometricInterpretation": "MONOCHROME2",
      "PixelBandwidth": 2290.0,
      "PixelRepresentation": 0,
      "PixelSpacing": [2.0, 2.0],
      "ProtocolName": "func_task-shinobi_run-1",
      "RepetitionTime": 1490.0,
      "Rows": 832,
      "SAR": 0.03826738157813,
      "SamplesPerPixel": 1,
      "ScanOptions": "FS",
      "ScanningSequence": "EP",
      "SequenceName": "epfid2d1_104",
      "SequenceVariant": [
        "SK",
        "SS"
],
      "SeriesDescription": "func_task-shinobi_run-1",
      "SeriesNumber": 11,
      "SeriesTime": "093013.003000",
      "SliceLocation": -32.851899380965,
      "SliceThickness": 2.0,
      "SmallestImagePixelValue": 0,
      "SoftwareVersions": "syngo MR E11",
      "SpacingBetweenSlices": 1.9999999776768,
      "SpecificCharacterSet": "ISO_IR 100",
      "StudyID": "1",
      "StudyTime": "085710.797000",
      "TransmitCoilName": "Body",
      "VariableFlipAngleFlag": "N",
      "WindowCenterWidthExplanation": "Algo1",
      "dBdt": 0.0},
    "slices": {}
  },
  "time": {
    "samples": {
      "AcquisitionNumber": [1, 2, 3, 4, 5, 6, 7, 8, 9, 10, 11, 12, 13, 14, 15, 16, 17, 18, 19, 20, 21, 22, 23, 24, 25, 26, 27, 28, 29, 30, 31, 32, 33, 34, 35, 36, 37, 38, 39, 40, 41, 42, 43, 44, 45, 46, 47, 48, 49, 50, 51, 52, 53, 54, 55, 56, 57, 58, 59, 60, 61, 62, 63, 64, 65, 66, 67, 68, 69, 70, 71, 72, 73, 74, 75, 76, 77, 78, 79, 80, 81, 82, 83, 84, 85, 86, 87, 88, 89, 90, 91, 92, 93, 94, 95, 96, 97, 98, 99, 100, 101, 102, 103, 104, 105, 106, 107, 108, 109, 110, 111, 112, 113, 114, 115, 116, 117, 118, 119, 120, 121, 122, 123, 124, 125, 126, 127, 128, 129, 130, 131, 132, 133, 134, 135, 136, 137, 138, 139, 140, 141, 142, 143, 144, 145, 146, 147, 148, 149, 150, 151, 152, 153, 154, 155, 156, 157, 158, 159, 160, 161, 162, 163, 164, 165, 166, 167, 168, 169, 170, 171, 172, 173, 174, 175, 176, 177, 178, 179, 180, 181, 182, 183, 184, 185, 186, 187, 188, 189, 190, 191, 192, 193, 194, 195, 196, 197, 198, 199, 200, 201, 202, 203, 204, 205, 206, 207, 208, 209, 210, 211, 212, 213, 214, 215, 216, 217, 218, 219, 220, 221, 222, 223, 224, 225, 226, 227, 228, 229, 230, 231, 232, 233, 234, 235, 236, 237, 238, 239, 240, 241, 242, 243, 244, 245, 246, 247, 248, 249, 250, 251, 252, 253, 254, 255, 256, 257, 258, 259, 260, 261, 262, 263, 264, 265, 266, 267, 268, 269, 270, 271, 272, 273, 274, 275, 276, 277, 278, 279, 280, 281, 282, 283, 284, 285, 286, 287, 288, 289, 290, 291, 292, 293, 294, 295, 296, 297, 298, 299, 300, 301, 302, 303, 304, 305, 306, 307, 308, 309, 310, 311, 312, 313, 314, 315, 316, 317, 318, 319, 320, 321, 322, 323, 324, 325, 326, 327, 328, 329, 330, 331, 332, 333, 334, 335, 336, 337, 338, 339, 340, 341, 342, 343, 344, 345, 346, 347, 348, 349, 350, 351, 352, 353, 354, 355, 356, 357, 358, 359, 360, 361, 362, 363, 364, 365, 366, 367, 368, 369, 370, 371, 372, 373, 374, 375, 376, 377, 378, 379, 380, 381, 382, 383, 384, 385, 386, 387, 388, 389, 390, 391, 392, 393, 394, 395, 396, 397, 398, 399, 400, 401, 402, 403, 404, 405, 406, 407, 408, 409, 410, 411, 412, 413, 414, 415, 416, 417, 418, 419, 420, 421, 422, 423, 424, 425, 426, 427, 428, 429, 430, 431, 432, 433, 434, 435, 436, 437, 438, 439, 440, 441, 442, 443, 444, 445, 446, 447, 448, 449, 450, 451, 452, 453, 454, 455, 456, 457, 458, 459, 460, 461, 462, 463, 464, 465, 466, 467, 468, 469],
      "AcquisitionTime": ["092852.095000", "092853.585000", "092855.075000", "092856.565000", "092858.055000", "092859.545000", "092901.035000", "092902.525000", "092904.015000", "092905.505000", "092906.995000", "092908.485000", "092909.975000", "092911.465000", "092912.955000", "092914.445000", "092915.935000", "092917.425000", "092918.915000", "092920.405000", "092921.895000", "092923.385000", "092924.875000", "092926.365000", "092927.855000", "092929.345000", "092930.835000", "092932.325000", "092933.815000", "092935.305000", "092936.795000", "092938.285000", "092939.775000", "092941.265000", "092942.755000", "092944.245000", "092945.735000", "092947.225000", "092948.715000", "092950.205000", "092951.695000", "092953.185000", "092954.675000", "092956.165000", "092957.655000", "092959.145000", "093000.635000", "093002.125000", "093003.615000", "093005.105000", "093006.595000", "093008.085000", "093009.575000", "093011.065000", "093012.555000", "093014.045000", "093015.535000", "093017.025000", "093018.515000", "093020.005000", "093021.495000", "093022.985000", "093024.475000", "093025.965000", "093027.455000", "093028.945000", "093030.435000", "093031.925000", "093033.415000", "093034.905000", "093036.395000", "093037.885000", "093039.375000", "093040.865000", "093042.355000", "093043.845000", "093045.335000", "093046.825000", "093048.315000", "093049.805000", "093051.295000", "093052.785000", "093054.275000", "093055.765000", "093057.255000", "093058.745000", "093100.235000", "093101.725000", "093103.215000", "093104.705000", "093106.195000", "093107.685000", "093109.175000", "093110.665000", "093112.155000", "093113.645000", "093115.135000", "093116.625000", "093118.115000", "093119.605000", "093121.095000", "093122.585000", "093124.075000", "093125.565000", "093127.055000", "093128.545000", "093130.035000", "093131.525000", "093133.015000", "093134.505000", "093135.995000", "093137.485000", "093138.975000", "093140.465000", "093141.955000", "093143.445000", "093144.935000", "093146.425000", "093147.915000", "093149.405000", "093150.895000", "093152.385000", "093153.875000", "093155.365000", "093156.855000", "093158.345000", "093159.835000", "093201.325000", "093202.815000", "093204.305000", "093205.795000", "093207.285000", "093208.775000", "093210.265000", "093211.755000", "093213.245000", "093214.735000", "093216.225000", "093217.715000", "093219.205000", "093220.695000", "093222.185000", "093223.675000", "093225.165000", "093226.655000", "093228.145000", "093229.635000", "093231.125000", "093232.615000", "093234.105000", "093235.595000", "093237.085000", "093238.575000", "093240.065000", "093241.555000", "093243.045000", "093244.535000", "093246.025000", "093247.515000", "093249.005000", "093250.495000", "093251.985000", "093253.475000", "093254.965000", "093256.455000", "093257.945000", "093259.435000", "093300.925000", "093302.415000", "093303.905000", "093305.395000", "093306.885000", "093308.375000", "093309.865000", "093311.355000", "093312.845000", "093314.335000", "093315.825000", "093317.315000", "093318.805000", "093320.295000", "093321.785000", "093323.275000", "093324.765000", "093326.255000", "093327.745000", "093329.235000", "093330.725000", "093332.215000", "093333.705000", "093335.195000", "093336.685000", "093338.175000", "093339.665000", "093341.155000", "093342.645000", "093344.135000", "093345.625000", "093347.115000", "093348.605000", "093350.095000", "093351.585000", "093353.075000", "093354.565000", "093356.055000", "093357.545000", "093359.035000", "093400.525000", "093402.015000", "093403.505000", "093404.995000", "093406.485000", "093407.975000", "093409.465000", "093410.955000", "093412.445000", "093413.935000", "093415.425000", "093416.915000", "093418.405000", "093419.895000", "093421.385000", "093422.875000", "093424.365000", "093425.855000", "093427.345000", "093428.835000", "093430.325000", "093431.815000", "093433.305000", "093434.795000", "093436.285000", "093437.775000", "093439.265000", "093440.755000", "093442.245000", "093443.735000", "093445.225000", "093446.715000", "093448.205000", "093449.695000", "093451.185000", "093452.675000", "093454.165000", "093455.655000", "093457.145000", "093458.635000", "093500.125000", "093501.615000", "093503.105000", "093504.595000", "093506.085000", "093507.575000", "093509.065000", "093510.555000", "093512.045000", "093513.535000", "093515.025000", "093516.515000", "093518.005000", "093519.495000", "093520.985000", "093522.475000", "093523.965000", "093525.455000", "093526.945000", "093528.435000", "093529.925000", "093531.415000", "093532.905000", "093534.395000", "093535.885000", "093537.375000", "093538.865000", "093540.355000", "093541.845000", "093543.335000", "093544.825000", "093546.315000", "093547.805000", "093549.295000", "093550.785000", "093552.275000", "093553.765000", "093555.255000", "093556.745000", "093558.235000", "093559.725000", "093601.215000", "093602.705000", "093604.195000", "093605.685000", "093607.175000", "093608.665000", "093610.155000", "093611.645000", "093613.135000", "093614.625000", "093616.115000", "093617.605000", "093619.095000", "093620.585000", "093622.075000", "093623.565000", "093625.055000", "093626.545000", "093628.035000", "093629.525000", "093631.015000", "093632.505000", "093633.995000", "093635.485000", "093636.975000", "093638.465000", "093639.955000", "093641.445000", "093642.935000", "093644.425000", "093645.915000", "093647.405000", "093648.895000", "093650.385000", "093651.875000", "093653.365000", "093654.855000", "093656.345000", "093657.835000", "093659.325000", "093700.815000", "093702.305000", "093703.795000", "093705.285000", "093706.775000", "093708.265000", "093709.755000", "093711.245000", "093712.735000", "093714.225000", "093715.715000", "093717.205000", "093718.695000", "093720.185000", "093721.675000", "093723.165000", "093724.655000", "093726.145000", "093727.635000", "093729.125000", "093730.615000", "093732.105000", "093733.595000", "093735.085000", "093736.575000", "093738.065000", "093739.555000", "093741.045000", "093742.535000", "093744.025000", "093745.515000", "093747.005000", "093748.495000", "093749.985000", "093751.475000", "093752.965000", "093754.455000", "093755.945000", "093757.435000", "093758.925000", "093800.415000", "093801.905000", "093803.395000", "093804.885000", "093806.375000", "093807.865000", "093809.355000", "093810.845000", "093812.335000", "093813.825000", "093815.315000", "093816.805000", "093818.295000", "093819.785000", "093821.275000", "093822.765000", "093824.255000", "093825.745000", "093827.235000", "093828.725000", "093830.215000", "093831.705000", "093833.195000", "093834.685000", "093836.175000", "093837.665000", "093839.155000", "093840.645000", "093842.135000", "093843.625000", "093845.115000", "093846.605000", "093848.095000", "093849.585000", "093851.075000", "093852.565000", "093854.055000", "093855.545000", "093857.035000", "093858.525000", "093900.015000", "093901.505000", "093902.995000", "093904.485000", "093905.975000", "093907.465000", "093908.955000", "093910.445000", "093911.935000", "093913.425000", "093914.915000", "093916.405000", "093917.895000", "093919.385000", "093920.875000", "093922.365000", "093923.855000", "093925.345000", "093926.835000", "093928.325000", "093929.815000", "093931.305000", "093932.795000", "093934.285000", "093935.775000", "093937.265000", "093938.755000", "093940.245000", "093941.735000", "093943.225000", "093944.715000", "093946.205000", "093947.695000", "093949.185000", "093950.675000", "093952.165000", "093953.655000", "093955.145000", "093956.635000", "093958.125000", "093959.615000", "094001.105000", "094002.595000", "094004.085000", "094005.575000", "094007.065000", "094008.555000", "094010.045000", "094011.535000", "094013.025000", "094014.515000", "094016.005000", "094017.495000", "094018.985000", "094020.475000", "094021.965000", "094023.455000", "094024.945000", "094026.435000", "094027.925000", "094029.415000"],
      "ContentTime": ["093013.006000", "093013.009000", "093013.012000", "093013.015000", "093013.018000", "093013.021000", "093013.024000", "093013.027000", "093013.030000", "093013.032000", "093013.035000", "093013.038000", "093013.047000", "093013.050000", "093013.053000", "093013.059000", "093013.062000", "093013.065000", "093013.068000", "093013.070000", "093013.073000", "093013.076000", "093013.082000", "093013.085000", "093013.088000", "093013.091000", "093032.972000", "093032.975000", "093032.979000", "093032.982000", "093032.985000", "093032.988000", "093032.991000", "093032.994000", "093032.997000", "093033.001000", "093033.004000", "093033.007000", "093033.012000", "093033.020000", "093033.023000", "093033.026000", "093033.029000", "093033.032000", "093033.035000", "093033.038000", "093052.972000", "093052.975000", "093052.978000", "093052.981000", "093052.985000", "093052.988000", "093052.991000", "093052.994000", "093052.996000", "093053.001000", "093053.003000", "093053.006000", "093053.009000", "093053.012000", "093053.015000", "093053.025000", "093053.027000", "093053.030000", "093053.033000", "093053.036000", "093112.972000", "093112.975000", "093112.978000", "093112.981000", "093112.984000", "093112.986000", "093112.989000", "093112.992000", "093112.995000", "093112.998000", "093113.002000", "093113.020000", "093113.022000", "093113.025000", "093113.028000", "093113.031000", "093113.034000", "093113.037000", "093113.040000", "093113.043000", "093132.973000", "093132.976000", "093132.979000", "093132.982000", "093132.985000", "093132.988000", "093132.991000", "093132.993000", "093132.996000", "093132.999000", "093133.002000", "093133.005000", "093133.008000", "093133.011000", "093133.014000", "093133.018000", "093133.021000", "093133.024000", "093133.027000", "093133.030000", "093212.972000", "093212.975000", "093212.978000", "093212.981000", "093212.984000", "093212.987000", "093212.990000", "093212.993000", "093212.996000", "093213.000000", "093213.003000", "093213.006000", "093213.009000", "093213.012000", "093213.015000", "093213.018000", "093213.020000", "093213.023000", "093213.026000", "093213.036000", "093213.039000", "093213.042000", "093213.044000", "093213.047000", "093213.050000", "093213.053000", "093213.056000", "093213.059000", "093252.972000", "093252.975000", "093252.978000", "093252.981000", "093252.984000", "093252.987000", "093252.990000", "093252.993000", "093252.996000", "093253.000000", "093253.003000", "093253.006000", "093253.009000", "093253.012000", "093253.014000", "093253.017000", "093253.020000", "093253.023000", "093253.026000", "093253.029000", "093253.032000", "093253.035000", "093253.038000", "093253.041000", "093253.044000", "093253.047000", "093253.050000", "093332.972000", "093332.975000", "093332.978000", "093332.981000", "093332.984000", "093332.987000", "093332.990000", "093332.993000", "093332.996000", "093333.000000", "093333.003000", "093333.006000", "093333.009000", "093333.012000", "093333.015000", "093333.018000", "093333.021000", "093333.024000", "093333.027000", "093333.030000", "093333.033000", "093333.036000", "093333.039000", "093333.042000", "093333.045000", "093333.048000", "093333.051000", "093352.973000", "093352.976000", "093352.979000", "093352.982000", "093352.985000", "093352.988000", "093352.991000", "093352.994000", "093352.997000", "093353.000000", "093353.003000", "093353.006000", "093353.009000", "093432.972000", "093432.975000", "093432.978000", "093432.981000", "093432.984000", "093432.987000", "093432.990000", "093432.993000", "093432.996000", "093433.000000", "093433.003000", "093433.006000", "093433.009000", "093433.012000", "093433.015000", "093433.017000", "093433.020000", "093433.023000", "093433.026000", "093433.029000", "093433.032000", "093433.035000", "093433.038000", "093433.041000", "093433.044000", "093433.047000", "093433.050000", "093512.972000", "093512.975000", "093512.978000", "093512.981000", "093512.984000", "093512.987000", "093512.990000", "093512.993000", "093512.996000", "093513.000000", "093513.003000", "093513.005000", "093513.008000", "093513.011000", "093513.014000", "093513.017000", "093513.020000", "093513.023000", "093513.026000", "093513.029000", "093513.032000", "093513.035000", "093513.038000", "093513.041000", "093513.044000", "093513.046000", "093513.049000", "093552.972000", "093552.975000", "093552.978000", "093552.981000", "093552.984000", "093552.987000", "093552.990000", "093552.993000", "093552.996000", "093553.000000", "093553.003000", "093553.005000", "093553.008000", "093553.011000", "093553.014000", "093553.017000", "093553.020000", "093553.023000", "093553.026000", "093553.039000", "093553.041000", "093553.044000", "093553.047000", "093553.050000", "093553.053000", "093553.056000", "093553.059000", "093632.972000", "093632.975000", "093632.978000", "093632.981000", "093632.984000", "093632.987000", "093632.990000", "093632.993000", "093632.995000", "093632.998000", "093633.002000", "093633.005000", "093633.008000", "093633.011000", "093633.014000", "093633.017000", "093633.020000", "093633.023000", "093633.026000", "093633.029000", "093633.032000", "093633.035000", "093633.038000", "093633.041000", "093633.043000", "093633.046000", "093633.049000", "093712.972000", "093712.975000", "093712.978000", "093712.981000", "093712.984000", "093712.988000", "093712.992000", "093712.995000", "093712.998000", "093713.002000", "093713.006000", "093713.009000", "093713.012000", "093713.015000", "093713.018000", "093713.021000", "093713.024000", "093713.027000", "093713.030000", "093713.033000", "093713.036000", "093713.039000", "093713.041000", "093713.044000", "093713.047000", "093713.050000", "093752.972000", "093752.975000", "093752.978000", "093752.981000", "093752.984000", "093752.987000", "093752.990000", "093752.993000", "093752.996000", "093753.000000", "093753.003000", "093753.006000", "093753.008000", "093753.011000", "093753.014000", "093753.017000", "093753.020000", "093753.023000", "093753.026000", "093753.029000", "093753.032000", "093753.035000", "093753.038000", "093753.040000", "093753.043000", "093753.046000", "093753.049000", "093832.973000", "093832.976000", "093832.979000", "093832.982000", "093832.985000", "093832.988000", "093832.991000", "093832.994000", "093832.997000", "093833.001000", "093833.004000", "093833.007000", "093833.010000", "093833.013000", "093833.016000", "093833.019000", "093833.022000", "093833.025000", "093833.028000", "093833.030000", "093833.033000", "093833.036000", "093833.039000", "093833.042000", "093833.045000", "093833.048000", "093833.051000", "093912.972000", "093912.975000", "093912.978000", "093912.981000", "093912.984000", "093912.987000", "093912.990000", "093912.993000", "093912.996000", "093913.000000", "093913.003000", "093913.006000", "093913.008000", "093913.011000", "093913.014000", "093913.017000", "093913.020000", "093913.023000", "093913.026000", "093913.029000", "093913.032000", "093913.035000", "093913.041000", "093913.044000", "093913.047000", "093913.050000", "093913.053000", "093952.972000", "093952.975000", "093952.978000", "093952.981000", "093952.984000", "093952.987000", "093952.990000", "093952.993000", "093952.996000", "093953.000000", "093953.003000", "093953.006000", "093953.008000", "093953.011000", "093953.014000", "093953.017000", "093953.020000", "093953.023000", "093953.026000", "093953.029000", "093953.032000", "093953.035000", "093953.038000", "093953.041000", "093953.044000", "093953.047000", "093953.050000", "094031.261000", "094031.264000", "094031.267000", "094031.270000", "094031.273000", "094031.276000", "094031.279000", "094031.282000", "094031.285000", "094031.288000", "094031.291000", "094031.294000", "094031.297000", "094031.300000", "094031.315000", "094031.318000", "094031.321000", "094031.324000", "094031.327000", "094031.330000", "094031.333000", "094031.336000", "094031.339000", "094031.342000", "094031.345000", "094031.348000"],
