{
  "AcquisitionMatrixPE": 104,
  "AcquisitionNumber": 1,
  "AcquisitionTime": "09:53:28.502500",
  "BandwidthPerPixelPhaseEncode": 17.17,
  "BaseResolution": 104,
  "BodyPartExamined": "BRAIN",
  "CoilString": "HC1-7;NC1_2",
  "ConsistencyInfo": "N4_VE11C_LATEST_20160120",
  "ConversionSoftware": "dcm2niix",
  "ConversionSoftwareVersion": "v1.0.20190902",
  "DerivedVendorReportedEchoSpacing": 0.000560011,
  "DeviceSerialNumber": "167006",
  "DwellTime": 2.1e-06,
  "EchoTime": 0.037,
  "EchoTrainLength": 104,
  "EffectiveEchoSpacing": 0.000560011,
  "FlipAngle": 52,
  "ImageComments": "Unaliased_MB4_PE3_LB",
  "ImageOrientationPatientDICOM": [0.993975, 0.0875021, 0.066016, -0.0689824, 0.967411, -0.243634],
  "ImageType": [
    "ORIGINAL",
    "PRIMARY",
    "M",
    "MB",
    "ND",
    "MOSAIC"
],
  "ImagingFrequency": 123.259,
  "InPlanePhaseEncodingDirectionDICOM": "COL",
  "InstitutionAddress": "Chemin_Queen-Mary_4565_Montreal_District_CA_H3W_1W5",
  "InstitutionName": "IUGM",
  "InstitutionalDepartmentName": "Department",
  "MRAcquisitionType": "2D",
  "MagneticFieldStrength": 3,
  "Manufacturer": "Siemens",
  "ManufacturersModelName": "Prisma_fit",
  "Modality": "MR",
  "MultibandAccelerationFactor": 4,
  "PartialFourier": 1,
  "PatientPosition": "HFS",
  "PercentPhaseFOV": 100,
  "PhaseEncodingDirection": "j",
  "PhaseEncodingSteps": 104,
  "PhaseResolution": 1,
  "PixelBandwidth": 2290,
  "ProcedureStepDescription": "games_shinobi",
  "ProtocolName": "func_task-shinobi_run-3",
  "PulseSequenceDetails": "%CustomerSeq%_cmrr_mbep2d_bold",
  "ReceiveCoilActiveElements": "HC1-7;NC1,2",
  "ReceiveCoilName": "HeadNeck_64",
  "ReconMatrixPE": 104,
  "RepetitionTime": 1.49,
  "SAR": 0.0382674,
  "ScanOptions": "FS",
  "ScanningSequence": "EP",
  "SequenceName": "epfid2d1_104",
  "SequenceVariant": "SK_SS",
  "SeriesDescription": "func_task-shinobi_run-3",
  "SeriesNumber": 15,
  "ShimSetting": [643, -7217, -8833, 682, 105, -23, 104, 0],
  "SliceThickness": 2,
  "SliceTiming": [0, 0.785, 0.0975, 0.8825, 0.195, 0.98, 0.295, 1.0775, 0.3925, 1.175, 0.49, 1.275, 0.5875, 1.3725, 0.685, 0, 0.785, 0.0975, 0.8825, 0.195, 0.98, 0.295, 1.0775, 0.3925, 1.175, 0.49, 1.275, 0.5875, 1.3725, 0.685, 0, 0.785, 0.0975, 0.8825, 0.195, 0.98, 0.295, 1.0775, 0.3925, 1.175, 0.49, 1.275, 0.5875, 1.3725, 0.685, 0, 0.785, 0.0975, 0.8825, 0.195, 0.98, 0.295, 1.0775, 0.3925, 1.175, 0.49, 1.275, 0.5875, 1.3725, 0.685],
  "SoftwareVersions": "syngo_MR_E11",
  "SpacingBetweenSlices": 2,
  "StationName": "MRC35049",
  "TaskName": "shinobi",
  "TotalReadoutTime": 0.0576811,
  "TxRefAmp": 244.954,
  "WipMemBlock": "c995b598-33ed-491f-b296-1c38cc09f019||Sequence: R016 ve11c/master r/e634e98; Dec 19 2017 11:00:25 by eja",
  "dcmmeta_affine": [
    [-1.987949013710022, -0.1379648745059967, 0.17036618292331696, 108.84107208251953],
    [-0.17500421404838562, 1.9348220825195312, -0.4752230942249298, -57.774932861328125],
    [0.13203208148479462, 0.48726701736450195, 1.9352359771728516, -57.72041320800781],
    [0.0, 0.0, 0.0, 1.0]
],
  "dcmmeta_reorient_transform": [
    [0.0, -1.0, 0.0, 103.0],
    [1.0, 0.0, 0.0, 0.0],
    [0.0, 0.0, 1.0, 0.0],
    [0.0, 0.0, 0.0, 1.0]
],
  "dcmmeta_shape": [104, 104, 60, 445],
  "dcmmeta_slice_dim": 2,
  "dcmmeta_version": 0.6,
  "global": {
    "const": {
      "AcquisitionMatrix": [104, 0, 0, 104],
      "AngioFlag": "N",
      "BitsAllocated": 16,
      "BitsStored": 16,
      "BodyPartExamined": "BRAIN",
      "Columns": 832,
      "EchoNumbers": 1,
      "EchoTime": 37.0,
      "EchoTrainLength": 104,
      "FlipAngle": 52.0,
      "HighBit": 15,
      "ImageOrientationPatient": [0.99397447829642, 0.08750210601623, 0.06601604303566, -0.0689824385903, 0.96741104694557, -0.2436335145538],
      "ImagePositionPatient": [-768.02489797437, -909.48851879218, 121.77361070796],
      "ImageType": [
        "ORIGINAL",
        "PRIMARY",
        "M",
        "MB",
        "ND",
        "MOSAIC"
],
      "ImagedNucleus": "1H",
      "ImagingFrequency": 123.259089,
      "InPlanePhaseEncodingDirection": "COL",
      "MRAcquisitionType": "2D",
      "MagneticFieldStrength": 3.0,
      "Manufacturer": "SIEMENS",
      "ManufacturerModelName": "Prisma_fit",
      "Modality": "MR",
      "NumberOfAverages": 1.0,
      "NumberOfPhaseEncodingSteps": 104,
      "PercentPhaseFieldOfView": 100.0,
      "PercentSampling": 100.0,
      "PerformedProcedureStepStartTime": "085710.945000",
      "PhotometricInterpretation": "MONOCHROME2",
      "PixelBandwidth": 2290.0,
      "PixelRepresentation": 0,
      "PixelSpacing": [2.0, 2.0],
      "ProtocolName": "func_task-shinobi_run-3",
      "RepetitionTime": 1490.0,
      "Rows": 832,
      "SAR": 0.03826738157813,
      "SamplesPerPixel": 1,
      "ScanOptions": "FS",
      "ScanningSequence": "EP",
      "SequenceName": "epfid2d1_104",
      "SequenceVariant": [
        "SK",
        "SS"
],
      "SeriesDescription": "func_task-shinobi_run-3",
      "SeriesNumber": 15,
      "SeriesTime": "095433.148000",
      "SliceLocation": -32.851899380965,
      "SliceThickness": 2.0,
      "SmallestImagePixelValue": 0,
      "SoftwareVersions": "syngo MR E11",
      "SpacingBetweenSlices": 1.9999999776768,
      "SpecificCharacterSet": "ISO_IR 100",
      "StudyID": "1",
      "StudyTime": "085710.797000",
      "TransmitCoilName": "Body",
      "VariableFlipAngleFlag": "N",
      "WindowCenterWidthExplanation": "Algo1",
      "dBdt": 0.0},
    "slices": {}
  },
  "time": {
    "samples": {
      "AcquisitionNumber": [1, 2, 3, 4, 5, 6, 7, 8, 9, 10, 11, 12, 13, 14, 15, 16, 17, 18, 19, 20, 21, 22, 23, 24, 25, 26, 27, 28, 29, 30, 31, 32, 33, 34, 35, 36, 37, 38, 39, 40, 41, 42, 43, 44, 45, 46, 47, 48, 49, 50, 51, 52, 53, 54, 55, 56, 57, 58, 59, 60, 61, 62, 63, 64, 65, 66, 67, 68, 69, 70, 71, 72, 73, 74, 75, 76, 77, 78, 79, 80, 81, 82, 83, 84, 85, 86, 87, 88, 89, 90, 91, 92, 93, 94, 95, 96, 97, 98, 99, 100, 101, 102, 103, 104, 105, 106, 107, 108, 109, 110, 111, 112, 113, 114, 115, 116, 117, 118, 119, 120, 121, 122, 123, 124, 125, 126, 127, 128, 129, 130, 131, 132, 133, 134, 135, 136, 137, 138, 139, 140, 141, 142, 143, 144, 145, 146, 147, 148, 149, 150, 151, 152, 153, 154, 155, 156, 157, 158, 159, 160, 161, 162, 163, 164, 165, 166, 167, 168, 169, 170, 171, 172, 173, 174, 175, 176, 177, 178, 179, 180, 181, 182, 183, 184, 185, 186, 187, 188, 189, 190, 191, 192, 193, 194, 195, 196, 197, 198, 199, 200, 201, 202, 203, 204, 205, 206, 207, 208, 209, 210, 211, 212, 213, 214, 215, 216, 217, 218, 219, 220, 221, 222, 223, 224, 225, 226, 227, 228, 229, 230, 231, 232, 233, 234, 235, 236, 237, 238, 239, 240, 241, 242, 243, 244, 245, 246, 247, 248, 249, 250, 251, 252, 253, 254, 255, 256, 257, 258, 259, 260, 261, 262, 263, 264, 265, 266, 267, 268, 269, 270, 271, 272, 273, 274, 275, 276, 277, 278, 279, 280, 281, 282, 283, 284, 285, 286, 287, 288, 289, 290, 291, 292, 293, 294, 295, 296, 297, 298, 299, 300, 301, 302, 303, 304, 305, 306, 307, 308, 309, 310, 311, 312, 313, 314, 315, 316, 317, 318, 319, 320, 321, 322, 323, 324, 325, 326, 327, 328, 329, 330, 331, 332, 333, 334, 335, 336, 337, 338, 339, 340, 341, 342, 343, 344, 345, 346, 347, 348, 349, 350, 351, 352, 353, 354, 355, 356, 357, 358, 359, 360, 361, 362, 363, 364, 365, 366, 367, 368, 369, 370, 371, 372, 373, 374, 375, 376, 377, 378, 379, 380, 381, 382, 383, 384, 385, 386, 387, 388, 389, 390, 391, 392, 393, 394, 395, 396, 397, 398, 399, 400, 401, 402, 403, 404, 405, 406, 407, 408, 409, 410, 411, 412, 413, 414, 415, 416, 417, 418, 419, 420, 421, 422, 423, 424, 425, 426, 427, 428, 429, 430, 431, 432, 433, 434, 435, 436, 437, 438, 439, 440, 441, 442, 443, 444, 445],
      "AcquisitionTime": ["095328.502500", "095329.992500", "095331.482500", "095332.972500", "095334.462500", "095335.952500", "095337.442500", "095338.932500", "095340.422500", "095341.912500", "095343.402500", "095344.892500", "095346.382500", "095347.872500", "095349.362500", "095350.852500", "095352.342500", "095353.832500", "095355.322500", "095356.812500", "095358.302500", "095359.792500", "095401.282500", "095402.772500", "095404.262500", "095405.752500", "095407.242500", "095408.732500", "095410.222500", "095411.712500", "095413.202500", "095414.692500", "095416.182500", "095417.672500", "095419.162500", "095420.652500", "095422.142500", "095423.632500", "095425.122500", "095426.612500", "095428.102500", "095429.592500", "095431.082500", "095432.572500", "095434.062500", "095435.552500", "095437.042500", "095438.532500", "095440.022500", "095441.512500", "095443.002500", "095444.492500", "095445.982500", "095447.472500", "095448.962500", "095450.452500", "095451.942500", "095453.432500", "095454.922500", "095456.412500", "095457.902500", "095459.392500", "095500.882500", "095502.372500", "095503.862500", "095505.352500", "095506.842500", "095508.332500", "095509.822500", "095511.312500", "095512.802500", "095514.292500", "095515.782500", "095517.272500", "095518.762500", "095520.252500", "095521.742500", "095523.232500", "095524.722500", "095526.212500", "095527.702500", "095529.192500", "095530.682500", "095532.172500", "095533.662500", "095535.152500", "095536.642500", "095538.132500", "095539.622500", "095541.112500", "095542.602500", "095544.092500", "095545.582500", "095547.072500", "095548.562500", "095550.052500", "095551.542500", "095553.032500", "095554.522500", "095556.012500", "095557.502500", "095558.992500", "095600.482500", "095601.972500", "095603.462500", "095604.952500", "095606.442500", "095607.932500", "095609.422500", "095610.912500", "095612.402500", "095613.892500", "095615.382500", "095616.872500", "095618.362500", "095619.852500", "095621.342500", "095622.832500", "095624.322500", "095625.812500", "095627.302500", "095628.792500", "095630.282500", "095631.772500", "095633.262500", "095634.752500", "095636.242500", "095637.732500", "095639.222500", "095640.712500", "095642.202500", "095643.692500", "095645.182500", "095646.672500", "095648.162500", "095649.652500", "095651.142500", "095652.632500", "095654.122500", "095655.612500", "095657.102500", "095658.592500", "095700.082500", "095701.572500", "095703.062500", "095704.552500", "095706.042500", "095707.532500", "095709.022500", "095710.512500", "095712.002500", "095713.492500", "095714.982500", "095716.472500", "095717.962500", "095719.452500", "095720.942500", "095722.432500", "095723.922500", "095725.412500", "095726.902500", "095728.392500", "095729.882500", "095731.372500", "095732.862500", "095734.352500", "095735.842500", "095737.332500", "095738.822500", "095740.312500", "095741.802500", "095743.292500", "095744.782500", "095746.272500", "095747.762500", "095749.252500", "095750.742500", "095752.232500", "095753.722500", "095755.212500", "095756.702500", "095758.192500", "095759.682500", "095801.172500", "095802.662500", "095804.152500", "095805.642500", "095807.132500", "095808.622500", "095810.112500", "095811.602500", "095813.092500", "095814.582500", "095816.072500", "095817.562500", "095819.052500", "095820.542500", "095822.032500", "095823.522500", "095825.012500", "095826.502500", "095827.992500", "095829.482500", "095830.972500", "095832.462500", "095833.952500", "095835.442500", "095836.932500", "095838.422500", "095839.912500", "095841.402500", "095842.892500", "095844.382500", "095845.872500", "095847.362500", "095848.852500", "095850.342500", "095851.832500", "095853.322500", "095854.812500", "095856.302500", "095857.792500", "095859.282500", "095900.772500", "095902.262500", "095903.752500", "095905.242500", "095906.732500", "095908.222500", "095909.712500", "095911.202500", "095912.692500", "095914.182500", "095915.672500", "095917.162500", "095918.652500", "095920.142500", "095921.632500", "095923.122500", "095924.612500", "095926.102500", "095927.592500", "095929.082500", "095930.572500", "095932.062500", "095933.552500", "095935.042500", "095936.532500", "095938.022500", "095939.512500", "095941.002500", "095942.492500", "095943.982500", "095945.472500", "095946.962500", "095948.452500", "095949.942500", "095951.432500", "095952.922500", "095954.412500", "095955.902500", "095957.392500", "095958.882500", "100000.372500", "100001.862500", "100003.352500", "100004.842500", "100006.332500", "100007.822500", "100009.312500", "100010.802500", "100012.292500", "100013.782500", "100015.272500", "100016.762500", "100018.252500", "100019.742500", "100021.232500", "100022.722500", "100024.212500", "100025.702500", "100027.192500", "100028.682500", "100030.172500", "100031.662500", "100033.152500", "100034.642500", "100036.132500", "100037.622500", "100039.112500", "100040.602500", "100042.092500", "100043.582500", "100045.072500", "100046.562500", "100048.052500", "100049.542500", "100051.032500", "100052.522500", "100054.012500", "100055.502500", "100056.992500", "100058.482500", "100059.972500", "100101.462500", "100102.952500", "100104.442500", "100105.932500", "100107.422500", "100108.912500", "100110.402500", "100111.892500", "100113.382500", "100114.872500", "100116.362500", "100117.852500", "100119.342500", "100120.832500", "100122.322500", "100123.812500", "100125.302500", "100126.792500", "100128.282500", "100129.772500", "100131.262500", "100132.752500", "100134.242500", "100135.732500", "100137.222500", "100138.712500", "100140.202500", "100141.692500", "100143.182500", "100144.672500", "100146.162500", "100147.652500", "100149.142500", "100150.632500", "100152.122500", "100153.612500", "100155.102500", "100156.592500", "100158.082500", "100159.572500", "100201.062500", "100202.552500", "100204.042500", "100205.532500", "100207.022500", "100208.512500", "100210.002500", "100211.492500", "100212.982500", "100214.472500", "100215.962500", "100217.452500", "100218.942500", "100220.432500", "100221.922500", "100223.412500", "100224.902500", "100226.392500", "100227.882500", "100229.372500", "100230.862500", "100232.352500", "100233.842500", "100235.332500", "100236.822500", "100238.312500", "100239.802500", "100241.292500", "100242.782500", "100244.272500", "100245.762500", "100247.252500", "100248.742500", "100250.232500", "100251.722500", "100253.212500", "100254.702500", "100256.192500", "100257.682500", "100259.172500", "100300.662500", "100302.152500", "100303.642500", "100305.132500", "100306.622500", "100308.112500", "100309.602500", "100311.092500", "100312.582500", "100314.072500", "100315.562500", "100317.052500", "100318.542500", "100320.032500", "100321.522500", "100323.012500", "100324.502500", "100325.992500", "100327.482500", "100328.972500", "100330.462500", "100331.952500", "100333.442500", "100334.932500", "100336.422500", "100337.912500", "100339.402500", "100340.892500", "100342.382500", "100343.872500", "100345.362500", "100346.852500", "100348.342500", "100349.832500", "100351.322500", "100352.812500", "100354.302500", "100355.792500", "100357.282500", "100358.772500", "100400.262500", "100401.752500", "100403.242500", "100404.732500", "100406.222500", "100407.712500", "100409.202500", "100410.692500", "100412.182500", "100413.672500", "100415.162500", "100416.652500", "100418.142500", "100419.632500", "100421.122500", "100422.612500", "100424.102500", "100425.592500", "100427.082500", "100428.572500", "100430.062500"],
      "ContentTime": ["095433.151000", "095433.155000", "095433.158000", "095433.161000", "095433.163000", "095433.166000", "095433.169000", "095433.172000", "095433.175000", "095453.111000", "095453.114000", "095453.117000", "095453.120000", "095453.123000", "095453.126000", "095453.129000", "095453.132000", "095453.134000", "095453.137000", "095453.140000", "095453.151000", "095453.153000", "095453.157000", "095453.162000", "095453.165000", "095453.168000", "095453.171000", "095453.174000", "095453.177000", "095453.180000", "095513.110000", "095513.113000", "095513.116000", "095513.119000", "095513.122000", "095513.125000", "095513.128000", "095513.131000", "095513.133000", "095513.136000", "095513.139000", "095513.142000", "095513.145000", "095513.148000", "095513.151000", "095513.154000", "095513.157000", "095513.160000", "095513.162000", "095513.165000", "095533.110000", "095533.122000", "095533.125000", "095533.128000", "095533.131000", "095533.134000", "095533.137000", "095533.140000", "095533.143000", "095533.145000", "095533.148000", "095533.151000", "095533.154000", "095533.157000", "095533.160000", "095533.163000", "095533.171000", "095533.174000", "095533.177000", "095533.180000", "095553.110000", "095553.113000", "095553.116000", "095553.119000", "095553.122000", "095553.124000", "095553.127000", "095553.130000", "095553.133000", "095553.136000", "095553.139000", "095553.142000", "095553.145000", "095553.148000", "095553.151000", "095553.153000", "095553.156000", "095553.159000", "095553.169000", "095553.172000", "095633.110000", "095633.113000", "095633.116000", "095633.119000", "095633.122000", "095633.125000", "095633.128000", "095633.130000", "095633.133000", "095633.136000", "095633.139000", "095633.142000", "095633.145000", "095633.148000", "095633.151000", "095633.154000", "095633.157000", "095633.160000", "095633.162000", "095633.165000", "095633.168000", "095633.171000", "095633.174000", "095633.177000", "095633.180000", "095633.183000", "095633.186000", "095633.189000", "095633.192000", "095633.195000", "095633.198000", "095633.201000", "095633.204000", "095713.111000", "095713.114000", "095713.117000", "095713.120000", "095713.123000", "095713.126000", "095713.129000", "095713.132000", "095713.135000", "095713.137000", "095713.140000", "095713.143000", "095713.146000", "095713.149000", "095713.152000", "095713.155000", "095713.158000", "095713.161000", "095713.164000", "095713.167000", "095713.170000", "095713.173000", "095713.176000", "095713.178000", "095713.181000", "095713.184000", "095713.187000", "095753.110000", "095753.113000", "095753.116000", "095753.119000", "095753.122000", "095753.125000", "095753.128000", "095753.131000", "095753.134000", "095753.137000", "095753.139000", "095753.142000", "095753.145000", "095753.148000", "095753.151000", "095753.154000", "095753.157000", "095753.160000", "095753.163000", "095753.166000", "095753.169000", "095753.172000", "095753.175000", "095753.177000", "095753.180000", "095753.183000", "095753.186000", "095833.110000", "095833.113000", "095833.116000", "095833.119000", "095833.122000", "095833.125000", "095833.128000", "095833.131000", "095833.134000", "095833.137000", "095833.140000", "095833.142000", "095833.145000", "095833.148000", "095833.151000", "095833.154000", "095833.158000", "095833.161000", "095833.164000", "095833.167000", "095833.170000", "095833.173000", "095833.176000", "095833.179000", "095833.182000", "095833.185000", "095913.110000", "095913.113000", "095913.116000", "095913.119000", "095913.122000", "095913.125000", "095913.128000", "095913.131000", "095913.134000", "095913.137000", "095913.140000", "095913.143000", "095913.145000", "095913.148000", "095913.151000", "095913.154000", "095913.157000", "095913.160000", "095913.163000", "095913.166000", "095913.169000", "095913.172000", "095913.175000", "095913.178000", "095913.181000", "095913.183000", "095913.186000", "095953.110000", "095953.113000", "095953.116000", "095953.119000", "095953.122000", "095953.125000", "095953.128000", "095953.131000", "095953.134000", "095953.136000", "095953.139000", "095953.142000", "095953.145000", "095953.148000", "095953.151000", "095953.162000", "095953.165000", "095953.180000", "095953.183000", "095953.186000", "095953.189000", "095953.192000", "095953.195000", "095953.198000", "095953.201000", "095953.204000", "095953.207000", "100033.110000", "100033.113000", "100033.116000", "100033.119000", "100033.122000", "100033.125000", "100033.128000", "100033.130000", "100033.133000", "100033.136000", "100033.139000", "100033.142000", "100033.145000", "100033.148000", "100033.151000", "100033.154000", "100033.157000", "100033.159000", "100033.162000", "100033.174000", "100033.177000", "100033.179000", "100033.182000", "100033.186000", "100033.188000", "100033.192000", "100033.194000", "100113.110000", "100113.113000", "100113.116000", "100113.119000", "100113.122000", "100113.125000", "100113.128000", "100113.131000", "100113.134000", "100113.137000", "100113.140000", "100113.143000", "100113.146000", "100113.149000", "100113.152000", "100113.155000", "100113.158000", "100113.161000", "100113.164000", "100113.167000", "100113.170000", "100113.173000", "100113.176000", "100113.179000", "100113.182000", "100113.184000", "100113.188000", "100153.111000", "100153.114000", "100153.117000", "100153.120000", "100153.123000", "100153.126000", "100153.129000", "100153.132000", "100153.135000", "100153.138000", "100153.140000", "100153.143000", "100153.146000", "100153.149000", "100153.152000", "100153.155000", "100153.158000", "100153.161000", "100153.164000", "100153.167000", "100153.170000", "100153.173000", "100153.176000", "100153.179000", "100153.181000", "100153.184000", "100153.187000", "100233.110000", "100233.113000", "100233.124000", "100233.127000", "100233.130000", "100233.133000", "100233.136000", "100233.139000", "100233.142000", "100233.145000", "100233.148000", "100233.151000", "100233.153000", "100233.156000", "100233.159000", "100233.162000", "100233.165000", "100233.168000", "100233.171000", "100233.175000", "100233.178000", "100233.181000", "100233.184000", "100233.187000", "100233.190000", "100233.193000", "100313.110000", "100313.113000", "100313.116000", "100313.119000", "100313.122000", "100313.125000", "100313.128000", "100313.131000", "100313.134000", "100313.136000", "100313.139000", "100313.142000", "100313.145000", "100313.148000", "100313.151000", "100313.154000", "100313.157000", "100313.160000", "100313.163000", "100313.166000", "100313.169000", "100313.172000", "100313.175000", "100313.178000", "100313.180000", "100313.183000", "100313.186000", "100333.110000", "100333.113000", "100333.116000", "100333.119000", "100333.122000", "100333.125000", "100333.130000", "100333.133000", "100333.135000", "100333.138000", "100333.141000", "100333.144000", "100333.147000", "100333.150000", "100413.111000", "100413.114000", "100413.117000", "100413.120000", "100413.123000", "100413.126000", "100413.129000", "100413.132000", "100413.135000", "100413.138000", "100413.141000", "100413.144000", "100413.147000", "100413.150000", "100413.153000", "100413.155000", "100413.158000", "100413.161000", "100413.164000", "100413.167000", "100413.170000", "100413.173000", "100413.176000", "100413.179000", "100413.182000", "100413.185000", "100413.196000", "100432.450000", "100432.453000", "100432.456000", "100432.459000", "100432.462000", "100432.465000", "100432.468000", "100432.471000", "100432.474000", "100432.477000", "100432.479000", "100432.482000", "100432.486000"],
