{
  "AcquisitionMatrixPE": 104,
  "AcquisitionNumber": 1,
  "AcquisitionTime": "10:56:26.247500",
  "BandwidthPerPixelPhaseEncode": 17.17,
  "BaseResolution": 104,
  "BodyPartExamined": "BRAIN",
  "CoilString": "HC1-7;NC1_2",
  "ConsistencyInfo": "N4_VE11C_LATEST_20160120",
  "ConversionSoftware": "dcm2niix",
  "ConversionSoftwareVersion": "v1.0.20190902",
  "DerivedVendorReportedEchoSpacing": 0.000560011,
  "DeviceSerialNumber": "167006",
  "DwellTime": 2.1e-06,
  "EchoTime": 0.037,
  "EchoTrainLength": 104,
  "EffectiveEchoSpacing": 0.000560011,
  "FlipAngle": 52,
  "ImageComments": "Unaliased_MB4_PE3_LB",
  "ImageOrientationPatientDICOM": [0.999364, 0.0252395, 0.0251932, -0.00854683, 0.855386, -0.517921],
  "ImageType": [
    "ORIGINAL",
    "PRIMARY",
    "M",
    "MB",
    "ND",
    "MOSAIC"
],
  "ImagingFrequency": 123.259,
  "InPlanePhaseEncodingDirectionDICOM": "COL",
  "InstitutionAddress": "Chemin_Queen-Mary_4565_Montreal_District_CA_H3W_1W5",
  "InstitutionName": "IUGM",
  "InstitutionalDepartmentName": "Department",
  "MRAcquisitionType": "2D",
  "MagneticFieldStrength": 3,
  "Manufacturer": "Siemens",
  "ManufacturersModelName": "Prisma_fit",
  "Modality": "MR",
  "MultibandAccelerationFactor": 4,
  "PartialFourier": 1,
  "PatientPosition": "HFS",
  "PercentPhaseFOV": 100,
  "PhaseEncodingDirection": "j",
  "PhaseEncodingSteps": 104,
  "PhaseResolution": 1,
  "PixelBandwidth": 2290,
  "ProcedureStepDescription": "games_shinobi",
  "ProtocolName": "func_task-shinobi_run-2",
  "PulseSequenceDetails": "%CustomerSeq%_cmrr_mbep2d_bold",
  "ReceiveCoilActiveElements": "HC1-7;NC1,2",
  "ReceiveCoilName": "HeadNeck_64",
  "ReconMatrixPE": 104,
  "RepetitionTime": 1.49,
  "SAR": 0.0373362,
  "ScanOptions": "FS",
  "ScanningSequence": "EP",
  "SequenceName": "epfid2d1_104",
  "SequenceVariant": "SK_SS",
  "SeriesDescription": "func_task-shinobi_run-2",
  "SeriesNumber": 16,
  "ShimSetting": [620, -7202, -8881, 347, -10, -252, -28, -1],
  "SliceThickness": 2,
  "SliceTiming": [0, 0.7825, 0.0975, 0.8825, 0.195, 0.98, 0.295, 1.0775, 0.3925, 1.175, 0.49, 1.2725, 0.5875, 1.3725, 0.685, 0, 0.7825, 0.0975, 0.8825, 0.195, 0.98, 0.295, 1.0775, 0.3925, 1.175, 0.49, 1.2725, 0.5875, 1.3725, 0.685, 0, 0.7825, 0.0975, 0.8825, 0.195, 0.98, 0.295, 1.0775, 0.3925, 1.175, 0.49, 1.2725, 0.5875, 1.3725, 0.685, 0, 0.7825, 0.0975, 0.8825, 0.195, 0.98, 0.295, 1.0775, 0.3925, 1.175, 0.49, 1.2725, 0.5875, 1.3725, 0.685],
  "SoftwareVersions": "syngo_MR_E11",
  "SpacingBetweenSlices": 2,
  "StationName": "MRC35049",
  "TaskName": "shinobi",
  "TotalReadoutTime": 0.0576811,
  "TxRefAmp": 252.356,
  "WipMemBlock": "02aa0467-9062-49cd-a1f5-de5cfab814fd||Sequence: R016 ve11c/master r/e634e98; Dec 19 2017 11:00:25 by eja",
  "dcmmeta_affine": [
    [-1.9987279176712036, -0.017093652859330177, 0.06924396753311157, 106.39728546142578],
    [-0.050478965044021606, 1.7107714414596558, -1.0347527265548706, -47.25878143310547],
    [0.050386443734169006, 1.0358421802520752, 1.7101147174835205, -97.6470947265625],
    [0.0, 0.0, 0.0, 1.0]
],
  "dcmmeta_reorient_transform": [
    [0.0, -1.0, 0.0, 103.0],
    [1.0, 0.0, 0.0, 0.0],
    [0.0, 0.0, 1.0, 0.0],
    [0.0, 0.0, 0.0, 1.0]
],
  "dcmmeta_shape": [104, 104, 60, 440],
  "dcmmeta_slice_dim": 2,
  "dcmmeta_version": 0.6,
  "global": {
    "const": {
      "AcquisitionMatrix": [104, 0, 0, 104],
      "AngioFlag": "N",
      "BitsAllocated": 16,
      "BitsStored": 16,
      "BodyPartExamined": "BRAIN",
      "Columns": 832,
      "EchoNumbers": 1,
      "EchoTime": 37.0,
      "EchoTrainLength": 104,
      "FlipAngle": 52.0,
      "HighBit": 15,
      "ImageOrientationPatient": [0.99936393275816, 0.02523948186837, 0.0251932224448, -0.0085468268272, 0.85538569770899, -0.5179210942857],
      "ImagePositionPatient": [-825.9514917997, -770.04580340006, 367.7505384683],
      "ImageType": [
        "ORIGINAL",
        "PRIMARY",
        "M",
        "MB",
        "ND",
        "MOSAIC"
],
      "ImagedNucleus": "1H",
      "ImagingFrequency": 123.259042,
      "InPlanePhaseEncodingDirection": "COL",
      "MRAcquisitionType": "2D",
      "MagneticFieldStrength": 3.0,
      "Manufacturer": "SIEMENS",
      "ManufacturerModelName": "Prisma_fit",
      "Modality": "MR",
      "NumberOfAverages": 1.0,
      "NumberOfPhaseEncodingSteps": 104,
      "PercentPhaseFieldOfView": 100.0,
      "PercentSampling": 100.0,
      "PerformedProcedureStepStartTime": "103518.167000",
      "PhotometricInterpretation": "MONOCHROME2",
      "PixelBandwidth": 2290.0,
      "PixelRepresentation": 0,
      "PixelSpacing": [2.0, 2.0],
      "ProtocolName": "func_task-shinobi_run-2",
      "RepetitionTime": 1490.0,
      "Rows": 832,
      "SAR": 0.03733617473902,
      "SamplesPerPixel": 1,
      "ScanOptions": "FS",
      "ScanningSequence": "EP",
      "SequenceName": "epfid2d1_104",
      "SequenceVariant": [
        "SK",
        "SS"
],
      "SeriesDescription": "func_task-shinobi_run-2",
      "SeriesNumber": 16,
      "SeriesTime": "105758.003000",
      "SliceLocation": -55.35960676776,
      "SliceThickness": 2.0,
      "SmallestImagePixelValue": 0,
      "SoftwareVersions": "syngo MR E11",
      "SpacingBetweenSlices": 2.0000000162186,
      "SpecificCharacterSet": "ISO_IR 100",
      "StudyID": "1",
      "StudyTime": "103518.085000",
      "TransmitCoilName": "Body",
      "VariableFlipAngleFlag": "N",
      "WindowCenterWidthExplanation": "Algo1",
      "dBdt": 0.0},
    "slices": {}
  },
  "time": {
    "samples": {
      "AcquisitionNumber": [1, 2, 3, 4, 5, 6, 7, 8, 9, 10, 11, 12, 13, 14, 15, 16, 17, 18, 19, 20, 21, 22, 23, 24, 25, 26, 27, 28, 29, 30, 31, 32, 33, 34, 35, 36, 37, 38, 39, 40, 41, 42, 43, 44, 45, 46, 47, 48, 49, 50, 51, 52, 53, 54, 55, 56, 57, 58, 59, 60, 61, 62, 63, 64, 65, 66, 67, 68, 69, 70, 71, 72, 73, 74, 75, 76, 77, 78, 79, 80, 81, 82, 83, 84, 85, 86, 87, 88, 89, 90, 91, 92, 93, 94, 95, 96, 97, 98, 99, 100, 101, 102, 103, 104, 105, 106, 107, 108, 109, 110, 111, 112, 113, 114, 115, 116, 117, 118, 119, 120, 121, 122, 123, 124, 125, 126, 127, 128, 129, 130, 131, 132, 133, 134, 135, 136, 137, 138, 139, 140, 141, 142, 143, 144, 145, 146, 147, 148, 149, 150, 151, 152, 153, 154, 155, 156, 157, 158, 159, 160, 161, 162, 163, 164, 165, 166, 167, 168, 169, 170, 171, 172, 173, 174, 175, 176, 177, 178, 179, 180, 181, 182, 183, 184, 185, 186, 187, 188, 189, 190, 191, 192, 193, 194, 195, 196, 197, 198, 199, 200, 201, 202, 203, 204, 205, 206, 207, 208, 209, 210, 211, 212, 213, 214, 215, 216, 217, 218, 219, 220, 221, 222, 223, 224, 225, 226, 227, 228, 229, 230, 231, 232, 233, 234, 235, 236, 237, 238, 239, 240, 241, 242, 243, 244, 245, 246, 247, 248, 249, 250, 251, 252, 253, 254, 255, 256, 257, 258, 259, 260, 261, 262, 263, 264, 265, 266, 267, 268, 269, 270, 271, 272, 273, 274, 275, 276, 277, 278, 279, 280, 281, 282, 283, 284, 285, 286, 287, 288, 289, 290, 291, 292, 293, 294, 295, 296, 297, 298, 299, 300, 301, 302, 303, 304, 305, 306, 307, 308, 309, 310, 311, 312, 313, 314, 315, 316, 317, 318, 319, 320, 321, 322, 323, 324, 325, 326, 327, 328, 329, 330, 331, 332, 333, 334, 335, 336, 337, 338, 339, 340, 341, 342, 343, 344, 345, 346, 347, 348, 349, 350, 351, 352, 353, 354, 355, 356, 357, 358, 359, 360, 361, 362, 363, 364, 365, 366, 367, 368, 369, 370, 371, 372, 373, 374, 375, 376, 377, 378, 379, 380, 381, 382, 383, 384, 385, 386, 387, 388, 389, 390, 391, 392, 393, 394, 395, 396, 397, 398, 399, 400, 401, 402, 403, 404, 405, 406, 407, 408, 409, 410, 411, 412, 413, 414, 415, 416, 417, 418, 419, 420, 421, 422, 423, 424, 425, 426, 427, 428, 429, 430, 431, 432, 433, 434, 435, 436, 437, 438, 439, 440],
      "AcquisitionTime": ["105626.247500", "105627.737500", "105629.227500", "105630.717500", "105632.207500", "105633.697500", "105635.187500", "105636.677500", "105638.167500", "105639.657500", "105641.147500", "105642.637500", "105644.127500", "105645.617500", "105647.107500", "105648.597500", "105650.087500", "105651.577500", "105653.067500", "105654.557500", "105656.047500", "105657.537500", "105659.027500", "105700.517500", "105702.007500", "105703.497500", "105704.987500", "105706.477500", "105707.967500", "105709.457500", "105710.947500", "105712.437500", "105713.927500", "105715.417500", "105716.907500", "105718.397500", "105719.887500", "105721.377500", "105722.867500", "105724.357500", "105725.847500", "105727.337500", "105728.827500", "105730.317500", "105731.807500", "105733.297500", "105734.787500", "105736.277500", "105737.767500", "105739.257500", "105740.747500", "105742.237500", "105743.727500", "105745.217500", "105746.707500", "105748.197500", "105749.687500", "105751.177500", "105752.667500", "105754.157500", "105755.647500", "105757.137500", "105758.627500", "105800.117500", "105801.607500", "105803.097500", "105804.587500", "105806.077500", "105807.567500", "105809.057500", "105810.547500", "105812.037500", "105813.527500", "105815.017500", "105816.507500", "105817.997500", "105819.487500", "105820.977500", "105822.467500", "105823.957500", "105825.447500", "105826.937500", "105828.427500", "105829.917500", "105831.407500", "105832.897500", "105834.387500", "105835.877500", "105837.367500", "105838.857500", "105840.347500", "105841.837500", "105843.327500", "105844.817500", "105846.307500", "105847.797500", "105849.287500", "105850.777500", "105852.267500", "105853.757500", "105855.247500", "105856.737500", "105858.227500", "105859.717500", "105901.207500", "105902.697500", "105904.187500", "105905.677500", "105907.167500", "105908.657500", "105910.147500", "105911.637500", "105913.127500", "105914.617500", "105916.107500", "105917.597500", "105919.087500", "105920.577500", "105922.067500", "105923.557500", "105925.047500", "105926.537500", "105928.027500", "105929.517500", "105931.007500", "105932.497500", "105933.987500", "105935.477500", "105936.967500", "105938.457500", "105939.947500", "105941.437500", "105942.927500", "105944.417500", "105945.907500", "105947.397500", "105948.887500", "105950.377500", "105951.867500", "105953.357500", "105954.847500", "105956.337500", "105957.827500", "105959.317500", "110000.807500", "110002.297500", "110003.787500", "110005.277500", "110006.767500", "110008.257500", "110009.747500", "110011.237500", "110012.727500", "110014.217500", "110015.707500", "110017.197500", "110018.687500", "110020.177500", "110021.667500", "110023.157500", "110024.647500", "110026.137500", "110027.627500", "110029.117500", "110030.607500", "110032.097500", "110033.587500", "110035.077500", "110036.567500", "110038.057500", "110039.547500", "110041.037500", "110042.527500", "110044.017500", "110045.507500", "110046.997500", "110048.487500", "110049.977500", "110051.467500", "110052.957500", "110054.447500", "110055.937500", "110057.427500", "110058.917500", "110100.407500", "110101.897500", "110103.387500", "110104.877500", "110106.367500", "110107.857500", "110109.347500", "110110.837500", "110112.327500", "110113.817500", "110115.307500", "110116.797500", "110118.287500", "110119.777500", "110121.267500", "110122.757500", "110124.247500", "110125.737500", "110127.227500", "110128.717500", "110130.207500", "110131.697500", "110133.187500", "110134.677500", "110136.167500", "110137.657500", "110139.147500", "110140.637500", "110142.127500", "110143.617500", "110145.107500", "110146.597500", "110148.087500", "110149.577500", "110151.067500", "110152.557500", "110154.047500", "110155.537500", "110157.027500", "110158.517500", "110200.007500", "110201.497500", "110202.987500", "110204.477500", "110205.967500", "110207.457500", "110208.947500", "110210.437500", "110211.927500", "110213.417500", "110214.907500", "110216.397500", "110217.887500", "110219.377500", "110220.867500", "110222.357500", "110223.847500", "110225.337500", "110226.827500", "110228.317500", "110229.807500", "110231.297500", "110232.787500", "110234.277500", "110235.767500", "110237.257500", "110238.747500", "110240.237500", "110241.727500", "110243.217500", "110244.707500", "110246.197500", "110247.687500", "110249.177500", "110250.667500", "110252.157500", "110253.647500", "110255.137500", "110256.627500", "110258.117500", "110259.607500", "110301.097500", "110302.587500", "110304.077500", "110305.567500", "110307.057500", "110308.547500", "110310.037500", "110311.527500", "110313.017500", "110314.507500", "110315.997500", "110317.487500", "110318.977500", "110320.467500", "110321.957500", "110323.447500", "110324.937500", "110326.427500", "110327.917500", "110329.407500", "110330.897500", "110332.387500", "110333.877500", "110335.367500", "110336.857500", "110338.347500", "110339.837500", "110341.327500", "110342.817500", "110344.307500", "110345.797500", "110347.287500", "110348.777500", "110350.267500", "110351.757500", "110353.247500", "110354.737500", "110356.227500", "110357.717500", "110359.207500", "110400.697500", "110402.187500", "110403.677500", "110405.167500", "110406.657500", "110408.147500", "110409.637500", "110411.127500", "110412.617500", "110414.107500", "110415.597500", "110417.087500", "110418.577500", "110420.067500", "110421.557500", "110423.047500", "110424.537500", "110426.027500", "110427.517500", "110429.007500", "110430.497500", "110431.987500", "110433.477500", "110434.967500", "110436.457500", "110437.947500", "110439.437500", "110440.927500", "110442.417500", "110443.907500", "110445.397500", "110446.887500", "110448.377500", "110449.867500", "110451.357500", "110452.847500", "110454.337500", "110455.827500", "110457.317500", "110458.807500", "110500.297500", "110501.787500", "110503.277500", "110504.767500", "110506.257500", "110507.747500", "110509.237500", "110510.727500", "110512.217500", "110513.707500", "110515.197500", "110516.687500", "110518.177500", "110519.667500", "110521.157500", "110522.647500", "110524.137500", "110525.627500", "110527.117500", "110528.607500", "110530.097500", "110531.587500", "110533.077500", "110534.567500", "110536.057500", "110537.547500", "110539.037500", "110540.527500", "110542.017500", "110543.507500", "110544.997500", "110546.487500", "110547.977500", "110549.467500", "110550.957500", "110552.447500", "110553.937500", "110555.427500", "110556.917500", "110558.407500", "110559.897500", "110601.387500", "110602.877500", "110604.367500", "110605.857500", "110607.347500", "110608.837500", "110610.327500", "110611.817500", "110613.307500", "110614.797500", "110616.287500", "110617.777500", "110619.267500", "110620.757500", "110622.247500", "110623.737500", "110625.227500", "110626.717500", "110628.207500", "110629.697500", "110631.187500", "110632.677500", "110634.167500", "110635.657500", "110637.147500", "110638.637500", "110640.127500", "110641.617500", "110643.107500", "110644.597500", "110646.087500", "110647.577500", "110649.067500", "110650.557500", "110652.047500", "110653.537500", "110655.027500", "110656.517500", "110658.007500", "110659.497500", "110700.987500", "110702.477500", "110703.967500", "110705.457500", "110706.947500", "110708.437500", "110709.927500", "110711.417500", "110712.907500", "110714.397500", "110715.887500", "110717.377500", "110718.867500", "110720.357500"],
      "ContentTime": ["105758.006000", "105758.009000", "105758.012000", "105758.015000", "105758.018000", "105758.021000", "105758.024000", "105758.027000", "105758.030000", "105758.033000", "105758.036000", "105758.039000", "105758.042000", "105758.045000", "105758.048000", "105758.050000", "105758.053000", "105758.056000", "105758.059000", "105758.062000", "105758.065000", "105758.068000", "105758.071000", "105758.074000", "105758.077000", "105758.080000", "105758.083000", "105758.086000", "105758.089000", "105758.092000", "105758.095000", "105758.098000", "105758.100000", "105758.103000", "105758.106000", "105758.109000", "105758.112000", "105758.115000", "105758.118000", "105817.974000", "105817.977000", "105817.980000", "105817.983000", "105817.986000", "105817.989000", "105817.992000", "105817.995000", "105817.998000", "105818.002000", "105818.004000", "105818.007000", "105818.010000", "105818.013000", "105818.016000", "105818.019000", "105818.022000", "105818.025000", "105818.028000", "105818.031000", "105837.974000", "105837.977000", "105837.980000", "105837.983000", "105837.986000", "105837.990000", "105837.993000", "105837.996000", "105838.000000", "105838.003000", "105838.006000", "105838.009000", "105838.012000", "105838.014000", "105838.017000", "105838.020000", "105838.023000", "105838.026000", "105838.029000", "105838.032000", "105857.973000", "105857.976000", "105857.979000", "105857.982000", "105857.985000", "105857.988000", "105857.990000", "105857.994000", "105857.996000", "105857.999000", "105858.002000", "105858.007000", "105858.010000", "105858.013000", "105858.017000", "105858.019000", "105858.022000", "105858.025000", "105858.028000", "105858.031000", "105937.973000", "105937.976000", "105937.979000", "105937.982000", "105937.985000", "105937.988000", "105937.991000", "105937.994000", "105937.997000", "105938.001000", "105938.003000", "105938.006000", "105938.009000", "105938.012000", "105938.015000", "105938.018000", "105938.021000", "105938.024000", "105938.027000", "105938.030000", "105938.033000", "105938.036000", "105938.039000", "105938.042000", "105938.045000", "105938.048000", "105938.050000", "105938.053000", "105938.056000", "110017.974000", "110017.977000", "110017.980000", "110017.983000", "110017.986000", "110017.989000", "110017.992000", "110017.995000", "110017.998000", "110018.002000", "110018.005000", "110018.008000", "110018.011000", "110018.014000", "110018.017000", "110018.020000", "110018.023000", "110018.025000", "110018.040000", "110018.043000", "110018.045000", "110018.048000", "110018.051000", "110018.054000", "110018.057000", "110018.060000", "110018.063000", "110037.974000", "110037.977000", "110037.980000", "110037.983000", "110037.986000", "110037.989000", "110037.992000", "110037.995000", "110037.998000", "110038.002000", "110038.005000", "110038.007000", "110038.010000", "110117.973000", "110117.992000", "110117.995000", "110117.998000", "110118.002000", "110118.005000", "110118.008000", "110118.011000", "110118.014000", "110118.017000", "110118.020000", "110118.023000", "110118.026000", "110118.029000", "110118.032000", "110118.035000", "110118.038000", "110118.041000", "110118.044000", "110118.047000", "110118.050000", "110118.053000", "110118.056000", "110118.058000", "110118.061000", "110118.064000", "110118.067000", "110157.973000", "110157.976000", "110157.979000", "110157.982000", "110157.985000", "110157.988000", "110157.991000", "110157.994000", "110157.997000", "110158.001000", "110158.004000", "110158.006000", "110158.009000", "110158.012000", "110158.015000", "110158.018000", "110158.021000", "110158.024000", "110158.027000", "110158.030000", "110158.033000", "110158.036000", "110158.039000", "110158.042000", "110158.044000", "110158.047000", "110158.050000", "110237.974000", "110237.977000", "110237.980000", "110237.983000", "110237.986000", "110237.989000", "110237.992000", "110237.995000", "110237.998000", "110238.002000", "110238.005000", "110238.008000", "110238.011000", "110238.014000", "110238.017000", "110238.020000", "110238.023000", "110238.026000", "110238.029000", "110238.032000", "110238.035000", "110238.038000", "110238.040000", "110238.043000", "110238.046000", "110238.049000", "110317.974000", "110317.977000", "110317.980000", "110317.983000", "110317.986000", "110317.989000", "110317.992000", "110317.995000", "110317.998000", "110318.000000", "110318.004000", "110318.006000", "110318.009000", "110318.012000", "110318.015000", "110318.018000", "110318.021000", "110318.024000", "110318.027000", "110318.030000", "110318.033000", "110318.036000", "110318.039000", "110318.042000", "110318.045000", "110318.048000", "110318.051000", "110357.973000", "110357.976000", "110357.979000", "110357.982000", "110357.985000", "110357.988000", "110357.991000", "110357.994000", "110357.997000", "110358.001000", "110358.004000", "110358.007000", "110358.010000", "110358.013000", "110358.016000", "110358.019000", "110358.022000", "110358.025000", "110358.028000", "110358.030000", "110358.033000", "110358.036000", "110358.039000", "110358.042000", "110358.045000", "110358.048000", "110358.051000", "110437.974000", "110437.977000", "110437.980000", "110437.983000", "110437.986000", "110437.989000", "110437.992000", "110437.995000", "110437.998000", "110438.001000", "110438.004000", "110438.007000", "110438.010000", "110438.013000", "110438.016000", "110438.019000", "110438.022000", "110438.025000", "110438.027000", "110438.030000", "110438.033000", "110438.036000", "110438.039000", "110438.042000", "110438.045000", "110438.048000", "110438.051000", "110517.974000", "110517.977000", "110517.980000", "110517.983000", "110517.986000", "110517.989000", "110517.992000", "110517.995000", "110517.998000", "110518.002000", "110518.005000", "110518.008000", "110518.011000", "110518.014000", "110518.017000", "110518.020000", "110518.023000", "110518.026000", "110518.028000", "110518.032000", "110518.035000", "110518.037000", "110518.040000", "110518.044000", "110518.047000", "110518.049000", "110518.052000", "110557.973000", "110557.976000", "110557.979000", "110557.982000", "110557.985000", "110557.988000", "110557.991000", "110557.994000", "110557.997000", "110558.001000", "110558.004000", "110558.007000", "110558.010000", "110558.013000", "110558.016000", "110558.019000", "110558.022000", "110558.025000", "110558.028000", "110558.031000", "110558.034000", "110558.037000", "110558.040000", "110558.043000", "110558.046000", "110558.048000", "110558.051000", "110637.973000", "110637.976000", "110637.979000", "110637.982000", "110637.985000", "110637.988000", "110637.991000", "110637.994000", "110637.997000", "110638.001000", "110638.004000", "110638.007000", "110638.010000", "110638.013000", "110638.016000", "110638.019000", "110638.022000", "110638.025000", "110638.028000", "110638.031000", "110638.033000", "110638.037000", "110638.039000", "110638.042000", "110638.045000", "110638.048000", "110638.051000", "110717.974000", "110717.977000", "110717.981000", "110717.984000", "110717.987000", "110717.991000", "110717.994000", "110717.997000", "110718.002000", "110718.004000", "110718.008000", "110718.011000", "110718.013000", "110718.016000", "110718.019000", "110718.022000", "110718.025000", "110718.028000", "110718.031000", "110718.034000", "110718.037000", "110718.040000", "110718.043000", "110718.046000", "110718.049000", "110718.052000", "110723.697000", "110723.700000", "110723.703000", "110723.706000"],
