{
  "AcquisitionMatrixPE": 104,
  "AcquisitionNumber": 1,
  "AcquisitionTime": "10:44:55.410000",
  "BandwidthPerPixelPhaseEncode": 17.17,
  "BaseResolution": 104,
  "BodyPartExamined": "BRAIN",
  "CoilString": "HC1-7;NC1_2",
  "ConsistencyInfo": "N4_VE11C_LATEST_20160120",
  "ConversionSoftware": "dcm2niix",
  "ConversionSoftwareVersion": "v1.0.20190902",
  "DerivedVendorReportedEchoSpacing": 0.000560011,
  "DeviceSerialNumber": "167006",
  "DwellTime": 2.1e-06,
  "EchoTime": 0.037,
  "EchoTrainLength": 104,
  "EffectiveEchoSpacing": 0.000560011,
  "FlipAngle": 52,
  "ImageComments": "Unaliased_MB4_PE3_LB",
  "ImageOrientationPatientDICOM": [0.999364, 0.0252395, 0.0251932, -0.00854683, 0.855386, -0.517921],
  "ImageType": [
    "ORIGINAL",
    "PRIMARY",
    "M",
    "MB",
    "ND",
    "MOSAIC"
],
  "ImagingFrequency": 123.259,
  "InPlanePhaseEncodingDirectionDICOM": "COL",
  "InstitutionAddress": "Chemin_Queen-Mary_4565_Montreal_District_CA_H3W_1W5",
  "InstitutionName": "IUGM",
  "InstitutionalDepartmentName": "Department",
  "MRAcquisitionType": "2D",
  "MagneticFieldStrength": 3,
  "Manufacturer": "Siemens",
  "ManufacturersModelName": "Prisma_fit",
  "Modality": "MR",
  "MultibandAccelerationFactor": 4,
  "PartialFourier": 1,
  "PatientPosition": "HFS",
  "PercentPhaseFOV": 100,
  "PhaseEncodingDirection": "j",
  "PhaseEncodingSteps": 104,
  "PhaseResolution": 1,
  "PixelBandwidth": 2290,
  "ProcedureStepDescription": "games_shinobi",
  "ProtocolName": "func_task-shinobi_run-1",
  "PulseSequenceDetails": "%CustomerSeq%_cmrr_mbep2d_bold",
  "ReceiveCoilActiveElements": "HC1-7;NC1,2",
  "ReceiveCoilName": "HeadNeck_64",
  "ReconMatrixPE": 104,
  "RepetitionTime": 1.49,
  "SAR": 0.0373362,
  "ScanOptions": "FS",
  "ScanningSequence": "EP",
  "SequenceName": "epfid2d1_104",
  "SequenceVariant": "SK_SS",
  "SeriesDescription": "func_task-shinobi_run-1",
  "SeriesNumber": 14,
  "ShimSetting": [620, -7202, -8881, 347, -10, -252, -28, -1],
  "SliceThickness": 2,
  "SliceTiming": [0, 0.7825, 0.0975, 0.88, 0.195, 0.9775, 0.2925, 1.0775, 0.39, 1.175, 0.49, 1.2725, 0.5875, 1.37, 0.685, 0, 0.7825, 0.0975, 0.88, 0.195, 0.9775, 0.2925, 1.0775, 0.39, 1.175, 0.49, 1.2725, 0.5875, 1.37, 0.685, 0, 0.7825, 0.0975, 0.88, 0.195, 0.9775, 0.2925, 1.0775, 0.39, 1.175, 0.49, 1.2725, 0.5875, 1.37, 0.685, 0, 0.7825, 0.0975, 0.88, 0.195, 0.9775, 0.2925, 1.0775, 0.39, 1.175, 0.49, 1.2725, 0.5875, 1.37, 0.685],
  "SoftwareVersions": "syngo_MR_E11",
  "SpacingBetweenSlices": 2,
  "StationName": "MRC35049",
  "TaskName": "shinobi",
  "TotalReadoutTime": 0.0576811,
  "TxRefAmp": 252.356,
  "WipMemBlock": "17145103-b0db-489a-808c-7356c9438a5c||Sequence: R016 ve11c/master r/e634e98; Dec 19 2017 11:00:25 by eja",
  "dcmmeta_affine": [
    [-1.9987279176712036, -0.017093652859330177, 0.06924396753311157, 106.39728546142578],
    [-0.050478965044021606, 1.7107714414596558, -1.0347527265548706, -47.25878143310547],
    [0.050386443734169006, 1.0358421802520752, 1.7101147174835205, -97.6470947265625],
    [0.0, 0.0, 0.0, 1.0]
],
  "dcmmeta_reorient_transform": [
    [0.0, -1.0, 0.0, 103.0],
    [1.0, 0.0, 0.0, 0.0],
    [0.0, 0.0, 1.0, 0.0],
    [0.0, 0.0, 0.0, 1.0]
],
  "dcmmeta_shape": [104, 104, 60, 445],
  "dcmmeta_slice_dim": 2,
  "dcmmeta_version": 0.6,
  "global": {
    "const": {
      "AcquisitionMatrix": [104, 0, 0, 104],
      "AngioFlag": "N",
      "BitsAllocated": 16,
      "BitsStored": 16,
      "BodyPartExamined": "BRAIN",
      "Columns": 832,
      "EchoNumbers": 1,
      "EchoTime": 37.0,
      "EchoTrainLength": 104,
      "FlipAngle": 52.0,
      "HighBit": 15,
      "ImageOrientationPatient": [0.99936393275816, 0.02523948186837, 0.0251932224448, -0.0085468268272, 0.85538569770899, -0.5179210942857],
      "ImagePositionPatient": [-825.9514917997, -770.04580340006, 367.7505384683],
      "ImageType": [
        "ORIGINAL",
        "PRIMARY",
        "M",
        "MB",
        "ND",
        "MOSAIC"
],
      "ImagedNucleus": "1H",
      "ImagingFrequency": 123.259044,
      "InPlanePhaseEncodingDirection": "COL",
      "MRAcquisitionType": "2D",
      "MagneticFieldStrength": 3.0,
      "Manufacturer": "SIEMENS",
      "ManufacturerModelName": "Prisma_fit",
      "Modality": "MR",
      "NumberOfAverages": 1.0,
      "NumberOfPhaseEncodingSteps": 104,
      "PercentPhaseFieldOfView": 100.0,
      "PercentSampling": 100.0,
      "PerformedProcedureStepStartTime": "103518.167000",
      "PhotometricInterpretation": "MONOCHROME2",
      "PixelBandwidth": 2290.0,
      "PixelRepresentation": 0,
      "PixelSpacing": [2.0, 2.0],
      "ProtocolName": "func_task-shinobi_run-1",
      "RepetitionTime": 1490.0,
      "Rows": 832,
      "SAR": 0.03733617473902,
      "SamplesPerPixel": 1,
      "ScanOptions": "FS",
      "ScanningSequence": "EP",
      "SequenceName": "epfid2d1_104",
      "SequenceVariant": [
        "SK",
        "SS"
],
      "SeriesDescription": "func_task-shinobi_run-1",
      "SeriesNumber": 14,
      "SeriesTime": "104623.540000",
      "SliceLocation": -55.35960676776,
      "SliceThickness": 2.0,
      "SmallestImagePixelValue": 0,
      "SoftwareVersions": "syngo MR E11",
      "SpacingBetweenSlices": 2.0000000162186,
      "SpecificCharacterSet": "ISO_IR 100",
      "StudyID": "1",
      "StudyTime": "103518.085000",
      "TransmitCoilName": "Body",
      "VariableFlipAngleFlag": "N",
      "WindowCenterWidthExplanation": "Algo1",
      "dBdt": 0.0},
    "slices": {}
  },
  "time": {
    "samples": {
      "AcquisitionNumber": [1, 2, 3, 4, 5, 6, 7, 8, 9, 10, 11, 12, 13, 14, 15, 16, 17, 18, 19, 20, 21, 22, 23, 24, 25, 26, 27, 28, 29, 30, 31, 32, 33, 34, 35, 36, 37, 38, 39, 40, 41, 42, 43, 44, 45, 46, 47, 48, 49, 50, 51, 52, 53, 54, 55, 56, 57, 58, 59, 60, 61, 62, 63, 64, 65, 66, 67, 68, 69, 70, 71, 72, 73, 74, 75, 76, 77, 78, 79, 80, 81, 82, 83, 84, 85, 86, 87, 88, 89, 90, 91, 92, 93, 94, 95, 96, 97, 98, 99, 100, 101, 102, 103, 104, 105, 106, 107, 108, 109, 110, 111, 112, 113, 114, 115, 116, 117, 118, 119, 120, 121, 122, 123, 124, 125, 126, 127, 128, 129, 130, 131, 132, 133, 134, 135, 136, 137, 138, 139, 140, 141, 142, 143, 144, 145, 146, 147, 148, 149, 150, 151, 152, 153, 154, 155, 156, 157, 158, 159, 160, 161, 162, 163, 164, 165, 166, 167, 168, 169, 170, 171, 172, 173, 174, 175, 176, 177, 178, 179, 180, 181, 182, 183, 184, 185, 186, 187, 188, 189, 190, 191, 192, 193, 194, 195, 196, 197, 198, 199, 200, 201, 202, 203, 204, 205, 206, 207, 208, 209, 210, 211, 212, 213, 214, 215, 216, 217, 218, 219, 220, 221, 222, 223, 224, 225, 226, 227, 228, 229, 230, 231, 232, 233, 234, 235, 236, 237, 238, 239, 240, 241, 242, 243, 244, 245, 246, 247, 248, 249, 250, 251, 252, 253, 254, 255, 256, 257, 258, 259, 260, 261, 262, 263, 264, 265, 266, 267, 268, 269, 270, 271, 272, 273, 274, 275, 276, 277, 278, 279, 280, 281, 282, 283, 284, 285, 286, 287, 288, 289, 290, 291, 292, 293, 294, 295, 296, 297, 298, 299, 300, 301, 302, 303, 304, 305, 306, 307, 308, 309, 310, 311, 312, 313, 314, 315, 316, 317, 318, 319, 320, 321, 322, 323, 324, 325, 326, 327, 328, 329, 330, 331, 332, 333, 334, 335, 336, 337, 338, 339, 340, 341, 342, 343, 344, 345, 346, 347, 348, 349, 350, 351, 352, 353, 354, 355, 356, 357, 358, 359, 360, 361, 362, 363, 364, 365, 366, 367, 368, 369, 370, 371, 372, 373, 374, 375, 376, 377, 378, 379, 380, 381, 382, 383, 384, 385, 386, 387, 388, 389, 390, 391, 392, 393, 394, 395, 396, 397, 398, 399, 400, 401, 402, 403, 404, 405, 406, 407, 408, 409, 410, 411, 412, 413, 414, 415, 416, 417, 418, 419, 420, 421, 422, 423, 424, 425, 426, 427, 428, 429, 430, 431, 432, 433, 434, 435, 436, 437, 438, 439, 440, 441, 442, 443, 444, 445],
      "AcquisitionTime": ["104455.410000", "104456.900000", "104458.390000", "104459.880000", "104501.370000", "104502.860000", "104504.350000", "104505.840000", "104507.330000", "104508.820000", "104510.310000", "104511.800000", "104513.290000", "104514.780000", "104516.270000", "104517.760000", "104519.250000", "104520.740000", "104522.230000", "104523.720000", "104525.210000", "104526.700000", "104528.190000", "104529.680000", "104531.170000", "104532.660000", "104534.150000", "104535.640000", "104537.130000", "104538.620000", "104540.110000", "104541.600000", "104543.090000", "104544.580000", "104546.070000", "104547.560000", "104549.050000", "104550.540000", "104552.030000", "104553.520000", "104555.010000", "104556.500000", "104557.990000", "104559.480000", "104600.970000", "104602.460000", "104603.950000", "104605.440000", "104606.930000", "104608.420000", "104609.910000", "104611.400000", "104612.890000", "104614.380000", "104615.870000", "104617.360000", "104618.850000", "104620.340000", "104621.830000", "104623.320000", "104624.810000", "104626.300000", "104627.790000", "104629.280000", "104630.770000", "104632.260000", "104633.750000", "104635.240000", "104636.730000", "104638.220000", "104639.710000", "104641.200000", "104642.690000", "104644.180000", "104645.670000", "104647.160000", "104648.650000", "104650.140000", "104651.630000", "104653.120000", "104654.610000", "104656.100000", "104657.590000", "104659.080000", "104700.570000", "104702.060000", "104703.550000", "104705.040000", "104706.530000", "104708.020000", "104709.510000", "104711.000000", "104712.490000", "104713.980000", "104715.470000", "104716.960000", "104718.450000", "104719.940000", "104721.430000", "104722.920000", "104724.410000", "104725.900000", "104727.390000", "104728.880000", "104730.370000", "104731.860000", "104733.350000", "104734.840000", "104736.330000", "104737.820000", "104739.310000", "104740.800000", "104742.290000", "104743.780000", "104745.270000", "104746.760000", "104748.250000", "104749.740000", "104751.230000", "104752.720000", "104754.210000", "104755.700000", "104757.190000", "104758.680000", "104800.170000", "104801.660000", "104803.150000", "104804.640000", "104806.130000", "104807.620000", "104809.110000", "104810.600000", "104812.090000", "104813.580000", "104815.070000", "104816.560000", "104818.050000", "104819.540000", "104821.030000", "104822.520000", "104824.010000", "104825.500000", "104826.990000", "104828.480000", "104829.970000", "104831.460000", "104832.950000", "104834.440000", "104835.930000", "104837.420000", "104838.910000", "104840.400000", "104841.890000", "104843.380000", "104844.870000", "104846.360000", "104847.850000", "104849.340000", "104850.830000", "104852.320000", "104853.810000", "104855.300000", "104856.790000", "104858.280000", "104859.770000", "104901.260000", "104902.750000", "104904.240000", "104905.730000", "104907.220000", "104908.710000", "104910.200000", "104911.690000", "104913.180000", "104914.670000", "104916.160000", "104917.650000", "104919.140000", "104920.630000", "104922.120000", "104923.610000", "104925.100000", "104926.590000", "104928.080000", "104929.570000", "104931.060000", "104932.550000", "104934.040000", "104935.530000", "104937.020000", "104938.510000", "104940.000000", "104941.490000", "104942.980000", "104944.470000", "104945.960000", "104947.450000", "104948.940000", "104950.430000", "104951.920000", "104953.410000", "104954.900000", "104956.390000", "104957.880000", "104959.370000", "105000.860000", "105002.350000", "105003.840000", "105005.330000", "105006.820000", "105008.310000", "105009.800000", "105011.290000", "105012.780000", "105014.270000", "105015.760000", "105017.250000", "105018.740000", "105020.230000", "105021.720000", "105023.210000", "105024.700000", "105026.190000", "105027.680000", "105029.170000", "105030.660000", "105032.150000", "105033.640000", "105035.130000", "105036.620000", "105038.110000", "105039.600000", "105041.090000", "105042.580000", "105044.070000", "105045.560000", "105047.050000", "105048.540000", "105050.030000", "105051.520000", "105053.010000", "105054.500000", "105055.990000", "105057.480000", "105058.970000", "105100.460000", "105101.950000", "105103.440000", "105104.930000", "105106.420000", "105107.910000", "105109.400000", "105110.890000", "105112.380000", "105113.870000", "105115.360000", "105116.850000", "105118.340000", "105119.830000", "105121.320000", "105122.810000", "105124.300000", "105125.790000", "105127.280000", "105128.770000", "105130.260000", "105131.750000", "105133.240000", "105134.730000", "105136.220000", "105137.710000", "105139.200000", "105140.690000", "105142.180000", "105143.670000", "105145.160000", "105146.650000", "105148.140000", "105149.630000", "105151.120000", "105152.610000", "105154.100000", "105155.590000", "105157.080000", "105158.570000", "105200.060000", "105201.550000", "105203.040000", "105204.530000", "105206.020000", "105207.510000", "105209.000000", "105210.490000", "105211.980000", "105213.470000", "105214.960000", "105216.450000", "105217.940000", "105219.430000", "105220.920000", "105222.410000", "105223.900000", "105225.390000", "105226.880000", "105228.370000", "105229.860000", "105231.350000", "105232.840000", "105234.330000", "105235.820000", "105237.310000", "105238.800000", "105240.290000", "105241.780000", "105243.270000", "105244.760000", "105246.250000", "105247.740000", "105249.230000", "105250.720000", "105252.210000", "105253.700000", "105255.190000", "105256.680000", "105258.170000", "105259.660000", "105301.150000", "105302.640000", "105304.130000", "105305.620000", "105307.110000", "105308.600000", "105310.090000", "105311.580000", "105313.070000", "105314.560000", "105316.050000", "105317.540000", "105319.030000", "105320.520000", "105322.010000", "105323.500000", "105324.990000", "105326.480000", "105327.970000", "105329.460000", "105330.950000", "105332.440000", "105333.930000", "105335.420000", "105336.910000", "105338.400000", "105339.890000", "105341.380000", "105342.870000", "105344.360000", "105345.850000", "105347.340000", "105348.830000", "105350.320000", "105351.810000", "105353.300000", "105354.790000", "105356.280000", "105357.770000", "105359.260000", "105400.750000", "105402.240000", "105403.730000", "105405.220000", "105406.710000", "105408.200000", "105409.690000", "105411.180000", "105412.670000", "105414.160000", "105415.650000", "105417.140000", "105418.630000", "105420.120000", "105421.610000", "105423.100000", "105424.590000", "105426.080000", "105427.570000", "105429.060000", "105430.550000", "105432.040000", "105433.530000", "105435.020000", "105436.510000", "105438.000000", "105439.490000", "105440.980000", "105442.470000", "105443.960000", "105445.450000", "105446.940000", "105448.430000", "105449.920000", "105451.410000", "105452.900000", "105454.390000", "105455.880000", "105457.370000", "105458.860000", "105500.350000", "105501.840000", "105503.330000", "105504.820000", "105506.310000", "105507.800000", "105509.290000", "105510.780000", "105512.270000", "105513.760000", "105515.250000", "105516.740000", "105518.230000", "105519.720000", "105521.210000", "105522.700000", "105524.190000", "105525.680000", "105527.170000", "105528.660000", "105530.150000", "105531.640000", "105533.130000", "105534.620000", "105536.110000", "105537.600000", "105539.090000", "105540.580000", "105542.070000", "105543.560000", "105545.050000", "105546.540000", "105548.030000", "105549.520000", "105551.010000", "105552.500000", "105553.990000", "105555.480000", "105556.970000"],
      "ContentTime": ["104623.542000", "104623.545000", "104623.548000", "104623.551000", "104623.554000", "104623.557000", "104623.560000", "104623.563000", "104623.566000", "104623.569000", "104623.572000", "104623.575000", "104623.578000", "104623.581000", "104623.584000", "104623.587000", "104623.590000", "104623.593000", "104623.596000", "104623.599000", "104623.602000", "104623.604000", "104623.607000", "104623.610000", "104623.613000", "104623.616000", "104623.619000", "104623.622000", "104623.625000", "104623.628000", "104623.631000", "104623.634000", "104623.637000", "104643.502000", "104643.505000", "104643.508000", "104643.511000", "104643.520000", "104643.523000", "104643.526000", "104643.529000", "104643.532000", "104643.535000", "104643.538000", "104643.541000", "104643.544000", "104643.547000", "104643.550000", "104643.553000", "104643.556000", "104643.559000", "104643.562000", "104643.565000", "104643.568000", "104703.502000", "104703.505000", "104703.508000", "104703.511000", "104703.514000", "104703.516000", "104703.519000", "104703.522000", "104703.525000", "104703.529000", "104703.532000", "104703.535000", "104703.537000", "104703.540000", "104703.543000", "104703.546000", "104703.549000", "104703.552000", "104703.555000", "104703.558000", "104723.502000", "104723.505000", "104723.508000", "104723.511000", "104723.514000", "104723.517000", "104723.520000", "104723.523000", "104723.526000", "104723.529000", "104723.532000", "104723.535000", "104723.538000", "104723.540000", "104723.543000", "104723.546000", "104723.567000", "104723.570000", "104723.573000", "104723.576000", "104803.502000", "104803.505000", "104803.508000", "104803.511000", "104803.514000", "104803.517000", "104803.520000", "104803.523000", "104803.526000", "104803.529000", "104803.532000", "104803.535000", "104803.538000", "104803.541000", "104803.544000", "104803.546000", "104803.549000", "104803.552000", "104803.555000", "104803.558000", "104803.562000", "104803.565000", "104803.568000", "104803.571000", "104803.574000", "104803.577000", "104803.580000", "104803.583000", "104803.586000", "104803.589000", "104803.592000", "104843.502000", "104843.505000", "104843.508000", "104843.511000", "104843.514000", "104843.517000", "104843.520000", "104843.523000", "104843.526000", "104843.529000", "104843.532000", "104843.535000", "104843.538000", "104843.541000", "104843.544000", "104843.547000", "104843.550000", "104843.553000", "104843.556000", "104843.559000", "104843.562000", "104843.565000", "104843.568000", "104843.571000", "104843.574000", "104843.576000", "104843.579000", "104923.502000", "104923.505000", "104923.508000", "104923.511000", "104923.514000", "104923.517000", "104923.520000", "104923.523000", "104923.526000", "104923.529000", "104923.532000", "104923.534000", "104923.537000", "104923.540000", "104923.543000", "104923.546000", "104923.549000", "104923.552000", "104923.555000", "104923.558000", "104923.561000", "104923.564000", "104923.567000", "104923.570000", "104923.573000", "104923.576000", "104923.579000", "105003.501000", "105003.504000", "105003.507000", "105003.510000", "105003.513000", "105003.516000", "105003.519000", "105003.522000", "105003.525000", "105003.528000", "105003.531000", "105003.534000", "105003.538000", "105003.541000", "105003.544000", "105003.547000", "105003.550000", "105003.553000", "105003.555000", "105003.558000", "105003.561000", "105003.564000", "105003.567000", "105003.570000", "105003.573000", "105003.576000", "105003.579000", "105023.502000", "105023.505000", "105023.508000", "105023.511000", "105023.514000", "105023.517000", "105023.520000", "105023.523000", "105023.526000", "105023.529000", "105023.532000", "105023.534000", "105023.537000", "105103.502000", "105103.505000", "105103.508000", "105103.511000", "105103.514000", "105103.517000", "105103.520000", "105103.523000", "105103.526000", "105103.529000", "105103.532000", "105103.534000", "105103.537000", "105103.540000", "105103.543000", "105103.546000", "105103.549000", "105103.552000", "105103.555000", "105103.558000", "105103.561000", "105103.564000", "105103.567000", "105103.570000", "105103.573000", "105103.576000", "105103.579000", "105143.502000", "105143.505000", "105143.508000", "105143.511000", "105143.517000", "105143.520000", "105143.523000", "105143.526000", "105143.529000", "105143.532000", "105143.535000", "105143.537000", "105143.541000", "105143.543000", "105143.561000", "105143.564000", "105143.567000", "105143.570000", "105143.573000", "105143.576000", "105143.579000", "105143.582000", "105143.585000", "105143.588000", "105143.591000", "105143.594000", "105143.597000", "105223.502000", "105223.505000", "105223.508000", "105223.511000", "105223.514000", "105223.517000", "105223.520000", "105223.523000", "105223.526000", "105223.529000", "105223.531000", "105223.535000", "105223.537000", "105223.540000", "105223.543000", "105223.547000", "105223.549000", "105223.552000", "105223.555000", "105223.558000", "105223.561000", "105223.564000", "105223.567000", "105223.570000", "105223.573000", "105223.576000", "105223.579000", "105303.502000", "105303.505000", "105303.515000", "105303.518000", "105303.521000", "105303.524000", "105303.527000", "105303.530000", "105303.533000", "105303.536000", "105303.539000", "105303.542000", "105303.545000", "105303.548000", "105303.551000", "105303.554000", "105303.557000", "105303.560000", "105303.563000", "105303.566000", "105303.569000", "105303.572000", "105303.575000", "105303.578000", "105303.581000", "105303.584000", "105303.587000", "105343.502000", "105343.505000", "105343.508000", "105343.511000", "105343.514000", "105343.517000", "105343.520000", "105343.523000", "105343.526000", "105343.529000", "105343.532000", "105343.535000", "105343.538000", "105343.541000", "105343.544000", "105343.547000", "105343.549000", "105343.553000", "105343.555000", "105343.558000", "105343.561000", "105343.564000", "105343.567000", "105343.570000", "105343.573000", "105343.576000", "105343.579000", "105423.502000", "105423.506000", "105423.509000", "105423.512000", "105423.515000", "105423.518000", "105423.521000", "105423.524000", "105423.527000", "105423.530000", "105423.533000", "105423.536000", "105423.539000", "105423.542000", "105423.545000", "105423.548000", "105423.551000", "105423.554000", "105423.557000", "105423.560000", "105423.563000", "105423.566000", "105423.569000", "105423.572000", "105423.575000", "105423.577000", "105503.502000", "105503.505000", "105503.508000", "105503.511000", "105503.514000", "105503.517000", "105503.520000", "105503.523000", "105503.526000", "105503.529000", "105503.532000", "105503.535000", "105503.538000", "105503.541000", "105503.544000", "105503.547000", "105503.549000", "105503.552000", "105503.555000", "105503.558000", "105503.561000", "105503.564000", "105503.567000", "105503.570000", "105503.573000", "105503.576000", "105503.579000", "105543.502000", "105543.505000", "105543.508000", "105543.511000", "105543.514000", "105543.517000", "105543.520000", "105543.523000", "105543.526000", "105543.529000", "105543.532000", "105543.535000", "105543.538000", "105543.541000", "105543.544000", "105543.547000", "105543.550000", "105543.553000", "105543.556000", "105543.559000", "105543.562000", "105543.565000", "105543.568000", "105543.571000", "105543.574000", "105543.577000", "105543.580000", "105559.902000", "105559.905000", "105559.908000", "105559.911000", "105559.914000", "105559.917000", "105559.920000", "105559.923000", "105559.926000", "105559.929000", "105559.945000"],
