{
  "AcquisitionMatrixPE": 104,
  "AcquisitionNumber": 1,
  "AcquisitionTime": "11:08:30.707500",
  "BandwidthPerPixelPhaseEncode": 17.17,
  "BaseResolution": 104,
  "BodyPartExamined": "BRAIN",
  "CoilString": "HC1-7;NC1_2",
  "ConsistencyInfo": "N4_VE11C_LATEST_20160120",
  "ConversionSoftware": "dcm2niix",
  "ConversionSoftwareVersion": "v1.0.20190902",
  "DerivedVendorReportedEchoSpacing": 0.000560011,
  "DeviceSerialNumber": "167006",
  "DwellTime": 2.1e-06,
  "EchoTime": 0.037,
  "EchoTrainLength": 104,
  "EffectiveEchoSpacing": 0.000560011,
  "FlipAngle": 52,
  "ImageComments": "Unaliased_MB4_PE3_LB",
  "ImageOrientationPatientDICOM": [0.999364, 0.0252395, 0.0251932, -0.00854683, 0.855386, -0.517921],
  "ImageType": [
    "ORIGINAL",
    "PRIMARY",
    "M",
    "MB",
    "ND",
    "MOSAIC"
],
  "ImagingFrequency": 123.259,
  "InPlanePhaseEncodingDirectionDICOM": "COL",
  "InstitutionAddress": "Chemin_Queen-Mary_4565_Montreal_District_CA_H3W_1W5",
  "InstitutionName": "IUGM",
  "InstitutionalDepartmentName": "Department",
  "MRAcquisitionType": "2D",
  "MagneticFieldStrength": 3,
  "Manufacturer": "Siemens",
  "ManufacturersModelName": "Prisma_fit",
  "Modality": "MR",
  "MultibandAccelerationFactor": 4,
  "PartialFourier": 1,
  "PatientPosition": "HFS",
  "PercentPhaseFOV": 100,
  "PhaseEncodingDirection": "j",
  "PhaseEncodingSteps": 104,
  "PhaseResolution": 1,
  "PixelBandwidth": 2290,
  "ProcedureStepDescription": "games_shinobi",
  "ProtocolName": "func_task-shinobi_run-3",
  "PulseSequenceDetails": "%CustomerSeq%_cmrr_mbep2d_bold",
  "ReceiveCoilActiveElements": "HC1-7;NC1,2",
  "ReceiveCoilName": "HeadNeck_64",
  "ReconMatrixPE": 104,
  "RepetitionTime": 1.49,
  "SAR": 0.0373362,
  "ScanOptions": "FS",
  "ScanningSequence": "EP",
  "SequenceName": "epfid2d1_104",
  "SequenceVariant": "SK_SS",
  "SeriesDescription": "func_task-shinobi_run-3",
  "SeriesNumber": 18,
  "ShimSetting": [620, -7202, -8881, 347, -10, -252, -28, -1],
  "SliceThickness": 2,
  "SliceTiming": [0, 0.785, 0.0975, 0.8825, 0.195, 0.98, 0.295, 1.0775, 0.3925, 1.175, 0.49, 1.275, 0.5875, 1.3725, 0.685, 0, 0.785, 0.0975, 0.8825, 0.195, 0.98, 0.295, 1.0775, 0.3925, 1.175, 0.49, 1.275, 0.5875, 1.3725, 0.685, 0, 0.785, 0.0975, 0.8825, 0.195, 0.98, 0.295, 1.0775, 0.3925, 1.175, 0.49, 1.275, 0.5875, 1.3725, 0.685, 0, 0.785, 0.0975, 0.8825, 0.195, 0.98, 0.295, 1.0775, 0.3925, 1.175, 0.49, 1.275, 0.5875, 1.3725, 0.685],
  "SoftwareVersions": "syngo_MR_E11",
  "SpacingBetweenSlices": 2,
  "StationName": "MRC35049",
  "TaskName": "shinobi",
  "TotalReadoutTime": 0.0576811,
  "TxRefAmp": 252.356,
  "WipMemBlock": "6ab75db3-aceb-4207-8ddf-9800bf77525d||Sequence: R016 ve11c/master r/e634e98; Dec 19 2017 11:00:25 by eja",
  "dcmmeta_affine": [
    [-1.9987279176712036, -0.017093652859330177, 0.06924396753311157, 106.39728546142578],
    [-0.050478965044021606, 1.7107714414596558, -1.0347527265548706, -47.25878143310547],
    [0.050386443734169006, 1.0358421802520752, 1.7101147174835205, -97.6470947265625],
    [0.0, 0.0, 0.0, 1.0]
],
  "dcmmeta_reorient_transform": [
    [0.0, -1.0, 0.0, 103.0],
    [1.0, 0.0, 0.0, 0.0],
    [0.0, 0.0, 1.0, 0.0],
    [0.0, 0.0, 0.0, 1.0]
],
  "dcmmeta_shape": [104, 104, 60, 509],
  "dcmmeta_slice_dim": 2,
  "dcmmeta_version": 0.6,
  "global": {
    "const": {
      "AcquisitionMatrix": [104, 0, 0, 104],
      "AngioFlag": "N",
      "BitsAllocated": 16,
      "BitsStored": 16,
      "BodyPartExamined": "BRAIN",
      "Columns": 832,
      "EchoNumbers": 1,
      "EchoTime": 37.0,
      "EchoTrainLength": 104,
      "FlipAngle": 52.0,
      "HighBit": 15,
      "ImageOrientationPatient": [0.99936393275816, 0.02523948186837, 0.0251932224448, -0.0085468268272, 0.85538569770899, -0.5179210942857],
      "ImagePositionPatient": [-825.9514917997, -770.04580340006, 367.7505384683],
      "ImageType": [
        "ORIGINAL",
        "PRIMARY",
        "M",
        "MB",
        "ND",
        "MOSAIC"
],
      "ImagedNucleus": "1H",
      "ImagingFrequency": 123.259045,
      "InPlanePhaseEncodingDirection": "COL",
      "MRAcquisitionType": "2D",
      "MagneticFieldStrength": 3.0,
      "Manufacturer": "SIEMENS",
      "ManufacturerModelName": "Prisma_fit",
      "Modality": "MR",
      "NumberOfAverages": 1.0,
      "NumberOfPhaseEncodingSteps": 104,
      "PercentPhaseFieldOfView": 100.0,
      "PercentSampling": 100.0,
      "PerformedProcedureStepStartTime": "103518.167000",
      "PhotometricInterpretation": "MONOCHROME2",
      "PixelBandwidth": 2290.0,
      "PixelRepresentation": 0,
      "PixelSpacing": [2.0, 2.0],
      "ProtocolName": "func_task-shinobi_run-3",
      "RepetitionTime": 1490.0,
      "Rows": 832,
      "SAR": 0.03733617473902,
      "SamplesPerPixel": 1,
      "ScanOptions": "FS",
      "ScanningSequence": "EP",
      "SequenceName": "epfid2d1_104",
      "SequenceVariant": [
        "SK",
        "SS"
],
      "SeriesDescription": "func_task-shinobi_run-3",
      "SeriesNumber": 18,
      "SeriesTime": "111000.091000",
      "SliceLocation": -55.35960676776,
      "SliceThickness": 2.0,
      "SmallestImagePixelValue": 0,
      "SoftwareVersions": "syngo MR E11",
      "SpacingBetweenSlices": 2.0000000162186,
      "SpecificCharacterSet": "ISO_IR 100",
      "StudyID": "1",
      "StudyTime": "103518.085000",
      "TransmitCoilName": "Body",
      "VariableFlipAngleFlag": "N",
      "WindowCenterWidthExplanation": "Algo1",
      "dBdt": 0.0},
    "slices": {}
  },
  "time": {
    "samples": {
      "AcquisitionNumber": [1, 2, 3, 4, 5, 6, 7, 8, 9, 10, 11, 12, 13, 14, 15, 16, 17, 18, 19, 20, 21, 22, 23, 24, 25, 26, 27, 28, 29, 30, 31, 32, 33, 34, 35, 36, 37, 38, 39, 40, 41, 42, 43, 44, 45, 46, 47, 48, 49, 50, 51, 52, 53, 54, 55, 56, 57, 58, 59, 60, 61, 62, 63, 64, 65, 66, 67, 68, 69, 70, 71, 72, 73, 74, 75, 76, 77, 78, 79, 80, 81, 82, 83, 84, 85, 86, 87, 88, 89, 90, 91, 92, 93, 94, 95, 96, 97, 98, 99, 100, 101, 102, 103, 104, 105, 106, 107, 108, 109, 110, 111, 112, 113, 114, 115, 116, 117, 118, 119, 120, 121, 122, 123, 124, 125, 126, 127, 128, 129, 130, 131, 132, 133, 134, 135, 136, 137, 138, 139, 140, 141, 142, 143, 144, 145, 146, 147, 148, 149, 150, 151, 152, 153, 154, 155, 156, 157, 158, 159, 160, 161, 162, 163, 164, 165, 166, 167, 168, 169, 170, 171, 172, 173, 174, 175, 176, 177, 178, 179, 180, 181, 182, 183, 184, 185, 186, 187, 188, 189, 190, 191, 192, 193, 194, 195, 196, 197, 198, 199, 200, 201, 202, 203, 204, 205, 206, 207, 208, 209, 210, 211, 212, 213, 214, 215, 216, 217, 218, 219, 220, 221, 222, 223, 224, 225, 226, 227, 228, 229, 230, 231, 232, 233, 234, 235, 236, 237, 238, 239, 240, 241, 242, 243, 244, 245, 246, 247, 248, 249, 250, 251, 252, 253, 254, 255, 256, 257, 258, 259, 260, 261, 262, 263, 264, 265, 266, 267, 268, 269, 270, 271, 272, 273, 274, 275, 276, 277, 278, 279, 280, 281, 282, 283, 284, 285, 286, 287, 288, 289, 290, 291, 292, 293, 294, 295, 296, 297, 298, 299, 300, 301, 302, 303, 304, 305, 306, 307, 308, 309, 310, 311, 312, 313, 314, 315, 316, 317, 318, 319, 320, 321, 322, 323, 324, 325, 326, 327, 328, 329, 330, 331, 332, 333, 334, 335, 336, 337, 338, 339, 340, 341, 342, 343, 344, 345, 346, 347, 348, 349, 350, 351, 352, 353, 354, 355, 356, 357, 358, 359, 360, 361, 362, 363, 364, 365, 366, 367, 368, 369, 370, 371, 372, 373, 374, 375, 376, 377, 378, 379, 380, 381, 382, 383, 384, 385, 386, 387, 388, 389, 390, 391, 392, 393, 394, 395, 396, 397, 398, 399, 400, 401, 402, 403, 404, 405, 406, 407, 408, 409, 410, 411, 412, 413, 414, 415, 416, 417, 418, 419, 420, 421, 422, 423, 424, 425, 426, 427, 428, 429, 430, 431, 432, 433, 434, 435, 436, 437, 438, 439, 440, 441, 442, 443, 444, 445, 446, 447, 448, 449, 450, 451, 452, 453, 454, 455, 456, 457, 458, 459, 460, 461, 462, 463, 464, 465, 466, 467, 468, 469, 470, 471, 472, 473, 474, 475, 476, 477, 478, 479, 480, 481, 482, 483, 484, 485, 486, 487, 488, 489, 490, 491, 492, 493, 494, 495, 496, 497, 498, 499, 500, 501, 502, 503, 504, 505, 506, 507, 508, 509],
      "AcquisitionTime": ["110830.707500", "110832.197500", "110833.687500", "110835.177500", "110836.667500", "110838.157500", "110839.647500", "110841.137500", "110842.627500", "110844.117500", "110845.607500", "110847.097500", "110848.587500", "110850.077500", "110851.567500", "110853.057500", "110854.547500", "110856.037500", "110857.527500", "110859.017500", "110900.507500", "110901.997500", "110903.487500", "110904.977500", "110906.467500", "110907.957500", "110909.447500", "110910.937500", "110912.427500", "110913.917500", "110915.407500", "110916.897500", "110918.387500", "110919.877500", "110921.367500", "110922.857500", "110924.347500", "110925.837500", "110927.327500", "110928.817500", "110930.307500", "110931.797500", "110933.287500", "110934.777500", "110936.267500", "110937.757500", "110939.247500", "110940.737500", "110942.227500", "110943.717500", "110945.207500", "110946.697500", "110948.187500", "110949.677500", "110951.167500", "110952.657500", "110954.147500", "110955.637500", "110957.127500", "110958.617500", "111000.107500", "111001.597500", "111003.087500", "111004.577500", "111006.067500", "111007.557500", "111009.047500", "111010.537500", "111012.027500", "111013.517500", "111015.007500", "111016.497500", "111017.987500", "111019.477500", "111020.967500", "111022.457500", "111023.947500", "111025.437500", "111026.927500", "111028.417500", "111029.907500", "111031.397500", "111032.887500", "111034.377500", "111035.867500", "111037.357500", "111038.847500", "111040.337500", "111041.827500", "111043.317500", "111044.807500", "111046.297500", "111047.787500", "111049.277500", "111050.767500", "111052.257500", "111053.747500", "111055.237500", "111056.727500", "111058.217500", "111059.707500", "111101.197500", "111102.687500", "111104.177500", "111105.667500", "111107.157500", "111108.647500", "111110.137500", "111111.627500", "111113.117500", "111114.607500", "111116.097500", "111117.587500", "111119.077500", "111120.567500", "111122.057500", "111123.547500", "111125.037500", "111126.527500", "111128.017500", "111129.507500", "111130.997500", "111132.487500", "111133.977500", "111135.467500", "111136.957500", "111138.447500", "111139.937500", "111141.427500", "111142.917500", "111144.407500", "111145.897500", "111147.387500", "111148.877500", "111150.367500", "111151.857500", "111153.347500", "111154.837500", "111156.327500", "111157.817500", "111159.307500", "111200.797500", "111202.287500", "111203.777500", "111205.267500", "111206.757500", "111208.247500", "111209.737500", "111211.227500", "111212.717500", "111214.207500", "111215.697500", "111217.187500", "111218.677500", "111220.167500", "111221.657500", "111223.147500", "111224.637500", "111226.127500", "111227.617500", "111229.107500", "111230.597500", "111232.087500", "111233.577500", "111235.067500", "111236.557500", "111238.047500", "111239.537500", "111241.027500", "111242.517500", "111244.007500", "111245.497500", "111246.987500", "111248.477500", "111249.967500", "111251.457500", "111252.947500", "111254.437500", "111255.927500", "111257.417500", "111258.907500", "111300.397500", "111301.887500", "111303.377500", "111304.867500", "111306.357500", "111307.847500", "111309.337500", "111310.827500", "111312.317500", "111313.807500", "111315.297500", "111316.787500", "111318.277500", "111319.767500", "111321.257500", "111322.747500", "111324.237500", "111325.727500", "111327.217500", "111328.707500", "111330.197500", "111331.687500", "111333.177500", "111334.667500", "111336.157500", "111337.647500", "111339.137500", "111340.627500", "111342.117500", "111343.607500", "111345.097500", "111346.587500", "111348.077500", "111349.567500", "111351.057500", "111352.547500", "111354.037500", "111355.527500", "111357.017500", "111358.507500", "111359.997500", "111401.487500", "111402.977500", "111404.467500", "111405.957500", "111407.447500", "111408.937500", "111410.427500", "111411.917500", "111413.407500", "111414.897500", "111416.387500", "111417.877500", "111419.367500", "111420.857500", "111422.347500", "111423.837500", "111425.327500", "111426.817500", "111428.307500", "111429.797500", "111431.287500", "111432.777500", "111434.267500", "111435.757500", "111437.247500", "111438.737500", "111440.227500", "111441.717500", "111443.207500", "111444.697500", "111446.187500", "111447.677500", "111449.167500", "111450.657500", "111452.147500", "111453.637500", "111455.127500", "111456.617500", "111458.107500", "111459.597500", "111501.087500", "111502.577500", "111504.067500", "111505.557500", "111507.047500", "111508.537500", "111510.027500", "111511.517500", "111513.007500", "111514.497500", "111515.987500", "111517.477500", "111518.967500", "111520.457500", "111521.947500", "111523.437500", "111524.927500", "111526.417500", "111527.907500", "111529.397500", "111530.887500", "111532.377500", "111533.867500", "111535.357500", "111536.847500", "111538.337500", "111539.827500", "111541.317500", "111542.807500", "111544.297500", "111545.787500", "111547.277500", "111548.767500", "111550.257500", "111551.747500", "111553.237500", "111554.727500", "111556.217500", "111557.707500", "111559.197500", "111600.687500", "111602.177500", "111603.667500", "111605.157500", "111606.647500", "111608.137500", "111609.627500", "111611.117500", "111612.607500", "111614.097500", "111615.587500", "111617.077500", "111618.567500", "111620.057500", "111621.547500", "111623.037500", "111624.527500", "111626.017500", "111627.507500", "111628.997500", "111630.487500", "111631.977500", "111633.467500", "111634.957500", "111636.447500", "111637.937500", "111639.427500", "111640.917500", "111642.407500", "111643.897500", "111645.387500", "111646.877500", "111648.367500", "111649.857500", "111651.347500", "111652.837500", "111654.327500", "111655.817500", "111657.307500", "111658.797500", "111700.287500", "111701.777500", "111703.267500", "111704.757500", "111706.247500", "111707.737500", "111709.227500", "111710.717500", "111712.207500", "111713.697500", "111715.187500", "111716.677500", "111718.167500", "111719.657500", "111721.147500", "111722.637500", "111724.127500", "111725.617500", "111727.107500", "111728.597500", "111730.087500", "111731.577500", "111733.067500", "111734.557500", "111736.047500", "111737.537500", "111739.027500", "111740.517500", "111742.007500", "111743.497500", "111744.987500", "111746.477500", "111747.967500", "111749.457500", "111750.947500", "111752.437500", "111753.927500", "111755.417500", "111756.907500", "111758.397500", "111759.887500", "111801.377500", "111802.867500", "111804.357500", "111805.847500", "111807.337500", "111808.827500", "111810.317500", "111811.807500", "111813.297500", "111814.787500", "111816.277500", "111817.767500", "111819.257500", "111820.747500", "111822.237500", "111823.727500", "111825.217500", "111826.707500", "111828.197500", "111829.687500", "111831.177500", "111832.667500", "111834.157500", "111835.647500", "111837.137500", "111838.627500", "111840.117500", "111841.607500", "111843.097500", "111844.587500", "111846.077500", "111847.567500", "111849.057500", "111850.547500", "111852.037500", "111853.527500", "111855.017500", "111856.507500", "111857.997500", "111859.487500", "111900.977500", "111902.467500", "111903.957500", "111905.447500", "111906.937500", "111908.427500", "111909.917500", "111911.407500", "111912.897500", "111914.387500", "111915.877500", "111917.367500", "111918.857500", "111920.347500", "111921.837500", "111923.327500", "111924.817500", "111926.307500", "111927.797500", "111929.287500", "111930.777500", "111932.267500", "111933.757500", "111935.247500", "111936.737500", "111938.227500", "111939.717500", "111941.207500", "111942.697500", "111944.187500", "111945.677500", "111947.167500", "111948.657500", "111950.147500", "111951.637500", "111953.127500", "111954.617500", "111956.107500", "111957.597500", "111959.087500", "112000.577500", "112002.067500", "112003.557500", "112005.047500", "112006.537500", "112008.027500", "112009.517500", "112011.007500", "112012.497500", "112013.987500", "112015.477500", "112016.967500", "112018.457500", "112019.947500", "112021.437500", "112022.927500", "112024.417500", "112025.907500", "112027.397500", "112028.887500", "112030.377500", "112031.867500", "112033.357500", "112034.847500", "112036.337500", "112037.827500", "112039.317500", "112040.807500", "112042.297500", "112043.787500", "112045.277500", "112046.767500", "112048.257500", "112049.747500", "112051.237500", "112052.727500", "112054.217500", "112055.707500", "112057.197500", "112058.687500", "112100.177500", "112101.667500", "112103.157500", "112104.647500", "112106.137500", "112107.627500"],
      "ContentTime": ["111000.094000", "111000.097000", "111000.100000", "111000.103000", "111000.106000", "111000.109000", "111000.112000", "111000.115000", "111000.118000", "111000.121000", "111000.124000", "111000.127000", "111000.130000", "111000.133000", "111000.136000", "111000.139000", "111000.142000", "111000.145000", "111000.148000", "111000.150000", "111000.153000", "111000.156000", "111000.159000", "111000.162000", "111000.165000", "111000.168000", "111000.171000", "111000.174000", "111000.177000", "111000.180000", "111000.183000", "111000.186000", "111000.189000", "111000.192000", "111000.195000", "111000.198000", "111020.063000", "111020.066000", "111020.069000", "111020.072000", "111020.075000", "111020.078000", "111020.081000", "111020.084000", "111020.087000", "111020.090000", "111020.093000", "111020.096000", "111020.099000", "111020.101000", "111020.104000", "111020.108000", "111020.110000", "111020.113000", "111020.116000", "111020.119000", "111040.062000", "111040.065000", "111040.068000", "111040.071000", "111040.074000", "111040.077000", "111040.080000", "111040.083000", "111040.086000", "111040.088000", "111040.091000", "111040.100000", "111040.103000", "111040.106000", "111040.109000", "111040.112000", "111040.115000", "111040.118000", "111040.121000", "111040.124000", "111100.062000", "111100.065000", "111100.068000", "111100.071000", "111100.074000", "111100.077000", "111100.080000", "111100.083000", "111100.086000", "111100.089000", "111100.091000", "111100.095000", "111100.097000", "111100.100000", "111100.115000", "111100.118000", "111100.121000", "111100.124000", "111100.127000", "111100.130000", "111140.063000", "111140.066000", "111140.069000", "111140.072000", "111140.075000", "111140.078000", "111140.081000", "111140.084000", "111140.087000", "111140.090000", "111140.093000", "111140.096000", "111140.098000", "111140.101000", "111140.104000", "111140.107000", "111140.110000", "111140.113000", "111140.116000", "111140.119000", "111140.122000", "111140.125000", "111140.128000", "111140.131000", "111140.134000", "111140.137000", "111140.139000", "111140.142000", "111140.145000", "111140.148000", "111220.063000", "111220.066000", "111220.069000", "111220.072000", "111220.075000", "111220.078000", "111220.081000", "111220.084000", "111220.087000", "111220.090000", "111220.093000", "111220.096000", "111220.098000", "111220.101000", "111220.104000", "111220.107000", "111220.110000", "111220.113000", "111220.116000", "111220.119000", "111220.122000", "111220.125000", "111220.128000", "111220.131000", "111220.134000", "111220.137000", "111220.140000", "111300.062000", "111300.065000", "111300.068000", "111300.071000", "111300.074000", "111300.077000", "111300.080000", "111300.083000", "111300.086000", "111300.089000", "111300.092000", "111300.095000", "111300.098000", "111300.101000", "111300.104000", "111300.107000", "111300.109000", "111300.112000", "111300.115000", "111300.118000", "111300.121000", "111300.124000", "111300.127000", "111300.130000", "111300.133000", "111300.136000", "111300.139000", "111340.063000", "111340.066000", "111340.069000", "111340.072000", "111340.075000", "111340.078000", "111340.081000", "111340.084000", "111340.087000", "111340.090000", "111340.093000", "111340.096000", "111340.098000", "111340.101000", "111340.104000", "111340.107000", "111340.110000", "111340.113000", "111340.116000", "111340.119000", "111340.122000", "111340.125000", "111340.128000", "111340.131000", "111340.134000", "111340.137000", "111340.140000", "111420.063000", "111420.066000", "111420.069000", "111420.072000", "111420.075000", "111420.078000", "111420.081000", "111420.084000", "111420.087000", "111420.090000", "111420.093000", "111420.096000", "111420.099000", "111420.101000", "111420.104000", "111420.107000", "111420.110000", "111420.113000", "111420.116000", "111420.119000", "111420.122000", "111420.125000", "111420.128000", "111420.131000", "111420.134000", "111420.137000", "111420.140000", "111500.063000", "111500.066000", "111500.069000", "111500.072000", "111500.075000", "111500.078000", "111500.081000", "111500.084000", "111500.087000", "111500.090000", "111500.093000", "111500.096000", "111500.099000", "111500.102000", "111500.105000", "111500.108000", "111500.111000", "111500.114000", "111500.117000", "111500.120000", "111500.123000", "111500.126000", "111500.129000", "111500.131000", "111500.134000", "111500.137000", "111540.062000", "111540.065000", "111540.068000", "111540.071000", "111540.074000", "111540.077000", "111540.080000", "111540.083000", "111540.086000", "111540.089000", "111540.092000", "111540.095000", "111540.098000", "111540.101000", "111540.116000", "111540.119000", "111540.122000", "111540.125000", "111540.128000", "111540.131000", "111540.134000", "111540.137000", "111540.140000", "111540.143000", "111540.146000", "111540.149000", "111540.152000", "111620.063000", "111620.066000", "111620.069000", "111620.072000", "111620.075000", "111620.078000", "111620.081000", "111620.084000", "111620.087000", "111620.090000", "111620.093000", "111620.096000", "111620.099000", "111620.102000", "111620.105000", "111620.107000", "111620.110000", "111620.113000", "111620.116000", "111620.119000", "111620.122000", "111620.125000", "111620.128000", "111620.131000", "111620.134000", "111620.137000", "111620.140000", "111700.063000", "111700.066000", "111700.069000", "111700.072000", "111700.075000", "111700.078000", "111700.081000", "111700.084000", "111700.087000", "111700.090000", "111700.093000", "111700.096000", "111700.099000", "111700.102000", "111700.104000", "111700.108000", "111700.110000", "111700.113000", "111700.116000", "111700.119000", "111700.122000", "111700.125000", "111700.128000", "111700.131000", "111700.134000", "111700.137000", "111700.140000", "111740.062000", "111740.065000", "111740.068000", "111740.071000", "111740.074000", "111740.077000", "111740.080000", "111740.083000", "111740.086000", "111740.089000", "111740.092000", "111740.095000", "111740.098000", "111740.101000", "111740.104000", "111740.107000", "111740.110000", "111740.113000", "111740.116000", "111740.119000", "111740.121000", "111740.124000", "111740.127000", "111740.130000", "111740.133000", "111740.136000", "111740.139000", "111820.063000", "111820.066000", "111820.069000", "111820.072000", "111820.075000", "111820.078000", "111820.081000", "111820.084000", "111820.087000", "111820.090000", "111820.093000", "111820.096000", "111820.099000", "111820.102000", "111820.105000", "111820.108000", "111820.111000", "111820.114000", "111820.117000", "111820.120000", "111820.123000", "111820.126000", "111820.129000", "111820.132000", "111820.135000", "111820.138000", "111820.140000", "111900.063000", "111900.066000", "111900.069000", "111900.072000", "111900.075000", "111900.078000", "111900.081000", "111900.084000", "111900.087000", "111900.090000", "111900.093000", "111900.096000", "111900.099000", "111900.102000", "111900.105000", "111900.108000", "111900.111000", "111900.114000", "111900.117000", "111900.119000", "111900.123000", "111900.125000", "111900.128000", "111900.131000", "111900.134000", "111900.137000", "111900.140000", "111940.063000", "111940.066000", "111940.069000", "111940.072000", "111940.075000", "111940.078000", "111940.081000", "111940.084000", "111940.087000", "111940.090000", "111940.093000", "111940.096000", "111940.099000", "111940.102000", "111940.105000", "111940.108000", "111940.111000", "111940.114000", "111940.116000", "111940.119000", "111940.122000", "111940.125000", "111940.128000", "111940.131000", "111940.134000", "111940.138000", "112020.062000", "112020.065000", "112020.068000", "112020.071000", "112020.074000", "112020.084000", "112020.087000", "112020.090000", "112020.093000", "112020.096000", "112020.099000", "112020.102000", "112020.104000", "112020.107000", "112020.110000", "112020.113000", "112020.116000", "112020.119000", "112020.122000", "112020.125000", "112020.128000", "112020.131000", "112020.134000", "112020.137000", "112020.140000", "112020.143000", "112020.146000", "112100.063000", "112100.066000", "112100.069000", "112100.072000", "112100.075000", "112100.078000", "112100.081000", "112100.084000", "112100.087000", "112100.090000", "112100.093000", "112100.096000", "112100.099000", "112100.102000", "112100.105000", "112100.108000", "112100.111000", "112100.114000", "112100.117000", "112100.120000", "112100.123000", "112100.126000", "112100.129000", "112100.131000", "112100.134000", "112100.137000", "112100.140000", "112109.788000", "112109.791000", "112109.794000", "112109.797000", "112109.800000", "112109.803000", "112109.806000"],
