{
  "AcquisitionMatrixPE": 104,
  "AcquisitionNumber": 1,
  "AcquisitionTime": "11:21:39.820000",
  "BandwidthPerPixelPhaseEncode": 17.17,
  "BaseResolution": 104,
  "BodyPartExamined": "BRAIN",
  "CoilString": "HC1-7;NC1_2",
  "ConsistencyInfo": "N4_VE11C_LATEST_20160120",
  "ConversionSoftware": "dcm2niix",
  "ConversionSoftwareVersion": "v1.0.20190902",
  "DerivedVendorReportedEchoSpacing": 0.000560011,
  "DeviceSerialNumber": "167006",
  "DwellTime": 2.1e-06,
  "EchoTime": 0.037,
  "EchoTrainLength": 104,
  "EffectiveEchoSpacing": 0.000560011,
  "FlipAngle": 52,
  "ImageComments": "Unaliased_MB4_PE3_LB",
  "ImageOrientationPatientDICOM": [0.999364, 0.0252395, 0.0251932, -0.00854683, 0.855386, -0.517921],
  "ImageType": [
    "ORIGINAL",
    "PRIMARY",
    "M",
    "MB",
    "ND",
    "MOSAIC"
],
  "ImagingFrequency": 123.259,
  "InPlanePhaseEncodingDirectionDICOM": "COL",
  "InstitutionAddress": "Chemin_Queen-Mary_4565_Montreal_District_CA_H3W_1W5",
  "InstitutionName": "IUGM",
  "InstitutionalDepartmentName": "Department",
  "MRAcquisitionType": "2D",
  "MagneticFieldStrength": 3,
  "Manufacturer": "Siemens",
  "ManufacturersModelName": "Prisma_fit",
  "Modality": "MR",
  "MultibandAccelerationFactor": 4,
  "PartialFourier": 1,
  "PatientPosition": "HFS",
  "PercentPhaseFOV": 100,
  "PhaseEncodingDirection": "j",
  "PhaseEncodingSteps": 104,
  "PhaseResolution": 1,
  "PixelBandwidth": 2290,
  "ProcedureStepDescription": "games_shinobi",
  "ProtocolName": "func_task-shinobi_run-4",
  "PulseSequenceDetails": "%CustomerSeq%_cmrr_mbep2d_bold",
  "ReceiveCoilActiveElements": "HC1-7;NC1,2",
  "ReceiveCoilName": "HeadNeck_64",
  "ReconMatrixPE": 104,
  "RepetitionTime": 1.49,
  "SAR": 0.0373362,
  "ScanOptions": "FS",
  "ScanningSequence": "EP",
  "SequenceName": "epfid2d1_104",
  "SequenceVariant": "SK_SS",
  "SeriesDescription": "func_task-shinobi_run-4",
  "SeriesNumber": 20,
  "ShimSetting": [620, -7202, -8881, 347, -10, -252, -28, -1],
  "SliceThickness": 2,
  "SliceTiming": [0, 0.7825, 0.0975, 0.88, 0.195, 0.98, 0.2925, 1.0775, 0.39, 1.175, 0.49, 1.2725, 0.5875, 1.37, 0.685, 0, 0.7825, 0.0975, 0.88, 0.195, 0.98, 0.2925, 1.0775, 0.39, 1.175, 0.49, 1.2725, 0.5875, 1.37, 0.685, 0, 0.7825, 0.0975, 0.88, 0.195, 0.98, 0.2925, 1.0775, 0.39, 1.175, 0.49, 1.2725, 0.5875, 1.37, 0.685, 0, 0.7825, 0.0975, 0.88, 0.195, 0.98, 0.2925, 1.0775, 0.39, 1.175, 0.49, 1.2725, 0.5875, 1.37, 0.685],
  "SoftwareVersions": "syngo_MR_E11",
  "SpacingBetweenSlices": 2,
  "StationName": "MRC35049",
  "TaskName": "shinobi",
  "TotalReadoutTime": 0.0576811,
  "TxRefAmp": 252.356,
  "WipMemBlock": "9331ec87-fdbc-4fbb-ba2b-0f9c010a3e60||Sequence: R016 ve11c/master r/e634e98; Dec 19 2017 11:00:25 by eja",
  "dcmmeta_affine": [
    [-1.9987279176712036, -0.017093652859330177, 0.06924396753311157, 106.39728546142578],
    [-0.050478965044021606, 1.7107714414596558, -1.0347527265548706, -47.25878143310547],
    [0.050386443734169006, 1.0358421802520752, 1.7101147174835205, -97.6470947265625],
    [0.0, 0.0, 0.0, 1.0]
],
  "dcmmeta_reorient_transform": [
    [0.0, -1.0, 0.0, 103.0],
    [1.0, 0.0, 0.0, 0.0],
    [0.0, 0.0, 1.0, 0.0],
    [0.0, 0.0, 0.0, 1.0]
],
  "dcmmeta_shape": [104, 104, 60, 439],
  "dcmmeta_slice_dim": 2,
  "dcmmeta_version": 0.6,
  "global": {
    "const": {
      "AcquisitionMatrix": [104, 0, 0, 104],
      "AngioFlag": "N",
      "BitsAllocated": 16,
      "BitsStored": 16,
      "BodyPartExamined": "BRAIN",
      "Columns": 832,
      "EchoNumbers": 1,
      "EchoTime": 37.0,
      "EchoTrainLength": 104,
      "FlipAngle": 52.0,
      "HighBit": 15,
      "ImageOrientationPatient": [0.99936393275816, 0.02523948186837, 0.0251932224448, -0.0085468268272, 0.85538569770899, -0.5179210942857],
      "ImagePositionPatient": [-825.9514917997, -770.04580340006, 367.7505384683],
      "ImageType": [
        "ORIGINAL",
        "PRIMARY",
        "M",
        "MB",
        "ND",
        "MOSAIC"
],
      "ImagedNucleus": "1H",
      "ImagingFrequency": 123.259051,
      "InPlanePhaseEncodingDirection": "COL",
      "MRAcquisitionType": "2D",
      "MagneticFieldStrength": 3.0,
      "Manufacturer": "SIEMENS",
      "ManufacturerModelName": "Prisma_fit",
      "Modality": "MR",
      "NumberOfAverages": 1.0,
      "NumberOfPhaseEncodingSteps": 104,
      "PercentPhaseFieldOfView": 100.0,
      "PercentSampling": 100.0,
      "PerformedProcedureStepStartTime": "103518.167000",
      "PhotometricInterpretation": "MONOCHROME2",
      "PixelBandwidth": 2290.0,
      "PixelRepresentation": 0,
      "PixelSpacing": [2.0, 2.0],
      "ProtocolName": "func_task-shinobi_run-4",
      "RepetitionTime": 1490.0,
      "Rows": 832,
      "SAR": 0.03733617473902,
      "SamplesPerPixel": 1,
      "ScanOptions": "FS",
      "ScanningSequence": "EP",
      "SequenceName": "epfid2d1_104",
      "SequenceVariant": [
        "SK",
        "SS"
],
      "SeriesDescription": "func_task-shinobi_run-4",
      "SeriesNumber": 20,
      "SeriesTime": "112303.531000",
      "SliceLocation": -55.35960676776,
      "SliceThickness": 2.0,
      "SmallestImagePixelValue": 0,
      "SoftwareVersions": "syngo MR E11",
      "SpacingBetweenSlices": 2.0000000162186,
      "SpecificCharacterSet": "ISO_IR 100",
      "StudyID": "1",
      "StudyTime": "103518.085000",
      "TransmitCoilName": "Body",
      "VariableFlipAngleFlag": "N",
      "WindowCenterWidthExplanation": "Algo1",
      "dBdt": 0.0},
    "slices": {}
  },
  "time": {
    "samples": {
      "AcquisitionNumber": [1, 2, 3, 4, 5, 6, 7, 8, 9, 10, 11, 12, 13, 14, 15, 16, 17, 18, 19, 20, 21, 22, 23, 24, 25, 26, 27, 28, 29, 30, 31, 32, 33, 34, 35, 36, 37, 38, 39, 40, 41, 42, 43, 44, 45, 46, 47, 48, 49, 50, 51, 52, 53, 54, 55, 56, 57, 58, 59, 60, 61, 62, 63, 64, 65, 66, 67, 68, 69, 70, 71, 72, 73, 74, 75, 76, 77, 78, 79, 80, 81, 82, 83, 84, 85, 86, 87, 88, 89, 90, 91, 92, 93, 94, 95, 96, 97, 98, 99, 100, 101, 102, 103, 104, 105, 106, 107, 108, 109, 110, 111, 112, 113, 114, 115, 116, 117, 118, 119, 120, 121, 122, 123, 124, 125, 126, 127, 128, 129, 130, 131, 132, 133, 134, 135, 136, 137, 138, 139, 140, 141, 142, 143, 144, 145, 146, 147, 148, 149, 150, 151, 152, 153, 154, 155, 156, 157, 158, 159, 160, 161, 162, 163, 164, 165, 166, 167, 168, 169, 170, 171, 172, 173, 174, 175, 176, 177, 178, 179, 180, 181, 182, 183, 184, 185, 186, 187, 188, 189, 190, 191, 192, 193, 194, 195, 196, 197, 198, 199, 200, 201, 202, 203, 204, 205, 206, 207, 208, 209, 210, 211, 212, 213, 214, 215, 216, 217, 218, 219, 220, 221, 222, 223, 224, 225, 226, 227, 228, 229, 230, 231, 232, 233, 234, 235, 236, 237, 238, 239, 240, 241, 242, 243, 244, 245, 246, 247, 248, 249, 250, 251, 252, 253, 254, 255, 256, 257, 258, 259, 260, 261, 262, 263, 264, 265, 266, 267, 268, 269, 270, 271, 272, 273, 274, 275, 276, 277, 278, 279, 280, 281, 282, 283, 284, 285, 286, 287, 288, 289, 290, 291, 292, 293, 294, 295, 296, 297, 298, 299, 300, 301, 302, 303, 304, 305, 306, 307, 308, 309, 310, 311, 312, 313, 314, 315, 316, 317, 318, 319, 320, 321, 322, 323, 324, 325, 326, 327, 328, 329, 330, 331, 332, 333, 334, 335, 336, 337, 338, 339, 340, 341, 342, 343, 344, 345, 346, 347, 348, 349, 350, 351, 352, 353, 354, 355, 356, 357, 358, 359, 360, 361, 362, 363, 364, 365, 366, 367, 368, 369, 370, 371, 372, 373, 374, 375, 376, 377, 378, 379, 380, 381, 382, 383, 384, 385, 386, 387, 388, 389, 390, 391, 392, 393, 394, 395, 396, 397, 398, 399, 400, 401, 402, 403, 404, 405, 406, 407, 408, 409, 410, 411, 412, 413, 414, 415, 416, 417, 418, 419, 420, 421, 422, 423, 424, 425, 426, 427, 428, 429, 430, 431, 432, 433, 434, 435, 436, 437, 438, 439],
      "AcquisitionTime": ["112139.820000", "112141.310000", "112142.800000", "112144.290000", "112145.780000", "112147.270000", "112148.760000", "112150.250000", "112151.740000", "112153.230000", "112154.720000", "112156.210000", "112157.700000", "112159.190000", "112200.680000", "112202.170000", "112203.660000", "112205.150000", "112206.640000", "112208.130000", "112209.620000", "112211.110000", "112212.600000", "112214.090000", "112215.580000", "112217.070000", "112218.560000", "112220.050000", "112221.540000", "112223.030000", "112224.520000", "112226.010000", "112227.500000", "112228.990000", "112230.480000", "112231.970000", "112233.460000", "112234.950000", "112236.440000", "112237.930000", "112239.420000", "112240.910000", "112242.400000", "112243.890000", "112245.380000", "112246.870000", "112248.360000", "112249.850000", "112251.340000", "112252.830000", "112254.320000", "112255.810000", "112257.300000", "112258.790000", "112300.280000", "112301.770000", "112303.260000", "112304.750000", "112306.240000", "112307.730000", "112309.220000", "112310.710000", "112312.200000", "112313.690000", "112315.180000", "112316.670000", "112318.160000", "112319.650000", "112321.140000", "112322.630000", "112324.120000", "112325.610000", "112327.100000", "112328.590000", "112330.080000", "112331.570000", "112333.060000", "112334.550000", "112336.040000", "112337.530000", "112339.020000", "112340.510000", "112342.000000", "112343.490000", "112344.980000", "112346.470000", "112347.960000", "112349.450000", "112350.940000", "112352.430000", "112353.920000", "112355.410000", "112356.900000", "112358.390000", "112359.880000", "112401.370000", "112402.860000", "112404.350000", "112405.840000", "112407.330000", "112408.820000", "112410.310000", "112411.800000", "112413.290000", "112414.780000", "112416.270000", "112417.760000", "112419.250000", "112420.740000", "112422.230000", "112423.720000", "112425.210000", "112426.700000", "112428.190000", "112429.680000", "112431.170000", "112432.660000", "112434.150000", "112435.640000", "112437.130000", "112438.620000", "112440.110000", "112441.600000", "112443.090000", "112444.580000", "112446.070000", "112447.560000", "112449.050000", "112450.540000", "112452.030000", "112453.520000", "112455.010000", "112456.500000", "112457.990000", "112459.480000", "112500.970000", "112502.460000", "112503.950000", "112505.440000", "112506.930000", "112508.420000", "112509.910000", "112511.400000", "112512.890000", "112514.380000", "112515.870000", "112517.360000", "112518.850000", "112520.340000", "112521.830000", "112523.320000", "112524.810000", "112526.300000", "112527.790000", "112529.280000", "112530.770000", "112532.260000", "112533.750000", "112535.240000", "112536.730000", "112538.220000", "112539.710000", "112541.200000", "112542.690000", "112544.180000", "112545.670000", "112547.160000", "112548.650000", "112550.140000", "112551.630000", "112553.120000", "112554.610000", "112556.100000", "112557.590000", "112559.080000", "112600.570000", "112602.060000", "112603.550000", "112605.040000", "112606.530000", "112608.020000", "112609.510000", "112611.000000", "112612.490000", "112613.980000", "112615.470000", "112616.960000", "112618.450000", "112619.940000", "112621.430000", "112622.920000", "112624.410000", "112625.900000", "112627.390000", "112628.880000", "112630.370000", "112631.860000", "112633.350000", "112634.840000", "112636.330000", "112637.820000", "112639.310000", "112640.800000", "112642.290000", "112643.780000", "112645.270000", "112646.760000", "112648.250000", "112649.740000", "112651.230000", "112652.720000", "112654.210000", "112655.700000", "112657.190000", "112658.680000", "112700.170000", "112701.660000", "112703.150000", "112704.640000", "112706.130000", "112707.620000", "112709.110000", "112710.600000", "112712.090000", "112713.580000", "112715.070000", "112716.560000", "112718.050000", "112719.540000", "112721.030000", "112722.520000", "112724.010000", "112725.500000", "112726.990000", "112728.480000", "112729.970000", "112731.460000", "112732.950000", "112734.440000", "112735.930000", "112737.420000", "112738.910000", "112740.400000", "112741.890000", "112743.380000", "112744.870000", "112746.360000", "112747.850000", "112749.340000", "112750.830000", "112752.320000", "112753.810000", "112755.300000", "112756.790000", "112758.280000", "112759.770000", "112801.260000", "112802.750000", "112804.240000", "112805.730000", "112807.220000", "112808.710000", "112810.200000", "112811.690000", "112813.180000", "112814.670000", "112816.160000", "112817.650000", "112819.140000", "112820.630000", "112822.120000", "112823.610000", "112825.100000", "112826.590000", "112828.080000", "112829.570000", "112831.060000", "112832.550000", "112834.040000", "112835.530000", "112837.020000", "112838.510000", "112840.000000", "112841.490000", "112842.980000", "112844.470000", "112845.960000", "112847.450000", "112848.940000", "112850.430000", "112851.920000", "112853.410000", "112854.900000", "112856.390000", "112857.880000", "112859.370000", "112900.860000", "112902.350000", "112903.840000", "112905.330000", "112906.820000", "112908.310000", "112909.800000", "112911.290000", "112912.780000", "112914.270000", "112915.760000", "112917.250000", "112918.740000", "112920.230000", "112921.720000", "112923.210000", "112924.700000", "112926.190000", "112927.680000", "112929.170000", "112930.660000", "112932.150000", "112933.640000", "112935.130000", "112936.620000", "112938.110000", "112939.600000", "112941.090000", "112942.580000", "112944.070000", "112945.560000", "112947.050000", "112948.540000", "112950.030000", "112951.520000", "112953.010000", "112954.500000", "112955.990000", "112957.480000", "112958.970000", "113000.460000", "113001.950000", "113003.440000", "113004.930000", "113006.420000", "113007.910000", "113009.400000", "113010.890000", "113012.380000", "113013.870000", "113015.360000", "113016.850000", "113018.340000", "113019.830000", "113021.320000", "113022.810000", "113024.300000", "113025.790000", "113027.280000", "113028.770000", "113030.260000", "113031.750000", "113033.240000", "113034.730000", "113036.220000", "113037.710000", "113039.200000", "113040.690000", "113042.180000", "113043.670000", "113045.160000", "113046.650000", "113048.140000", "113049.630000", "113051.120000", "113052.610000", "113054.100000", "113055.590000", "113057.080000", "113058.570000", "113100.060000", "113101.550000", "113103.040000", "113104.530000", "113106.020000", "113107.510000", "113109.000000", "113110.490000", "113111.980000", "113113.470000", "113114.960000", "113116.450000", "113117.940000", "113119.430000", "113120.920000", "113122.410000", "113123.900000", "113125.390000", "113126.880000", "113128.370000", "113129.860000", "113131.350000", "113132.840000", "113134.330000", "113135.820000", "113137.310000", "113138.800000", "113140.290000", "113141.780000", "113143.270000", "113144.760000", "113146.250000", "113147.740000", "113149.230000", "113150.720000", "113152.210000", "113153.700000", "113155.190000", "113156.680000", "113158.170000", "113159.660000", "113201.150000", "113202.640000", "113204.130000", "113205.620000", "113207.110000", "113208.600000", "113210.090000", "113211.580000", "113213.070000", "113214.560000", "113216.050000", "113217.540000", "113219.030000", "113220.520000", "113222.010000", "113223.500000", "113224.990000", "113226.480000", "113227.970000", "113229.460000", "113230.950000", "113232.440000"],
      "ContentTime": ["112303.534000", "112303.545000", "112303.548000", "112303.551000", "112303.554000", "112303.557000", "112303.560000", "112303.563000", "112303.566000", "112303.569000", "112303.572000", "112303.575000", "112303.578000", "112303.581000", "112303.584000", "112303.587000", "112303.590000", "112303.595000", "112303.598000", "112303.601000", "112303.604000", "112303.607000", "112303.610000", "112303.613000", "112303.616000", "112303.619000", "112303.622000", "112303.625000", "112303.627000", "112303.630000", "112323.502000", "112323.505000", "112323.508000", "112323.511000", "112323.523000", "112323.526000", "112323.528000", "112323.531000", "112323.534000", "112323.537000", "112323.540000", "112323.543000", "112323.546000", "112323.549000", "112323.552000", "112323.555000", "112323.558000", "112323.561000", "112323.564000", "112323.567000", "112343.502000", "112343.505000", "112343.508000", "112343.511000", "112343.514000", "112343.517000", "112343.520000", "112343.523000", "112343.526000", "112343.528000", "112343.531000", "112343.534000", "112343.537000", "112343.540000", "112343.543000", "112343.546000", "112343.549000", "112343.552000", "112343.555000", "112343.558000", "112343.561000", "112403.502000", "112403.505000", "112403.508000", "112403.511000", "112403.514000", "112403.517000", "112403.520000", "112403.523000", "112403.526000", "112403.529000", "112403.531000", "112403.534000", "112403.537000", "112403.540000", "112403.543000", "112403.546000", "112403.549000", "112403.552000", "112403.555000", "112403.572000", "112443.502000", "112443.505000", "112443.508000", "112443.511000", "112443.514000", "112443.517000", "112443.520000", "112443.523000", "112443.526000", "112443.529000", "112443.532000", "112443.534000", "112443.537000", "112443.540000", "112443.543000", "112443.546000", "112443.549000", "112443.552000", "112443.555000", "112443.558000", "112443.561000", "112443.564000", "112443.567000", "112443.570000", "112443.573000", "112443.576000", "112443.579000", "112443.581000", "112443.584000", "112443.587000", "112443.590000", "112443.593000", "112523.502000", "112523.505000", "112523.508000", "112523.511000", "112523.514000", "112523.517000", "112523.521000", "112523.524000", "112523.527000", "112523.530000", "112523.533000", "112523.536000", "112523.539000", "112523.542000", "112523.545000", "112523.548000", "112523.551000", "112523.554000", "112523.557000", "112523.560000", "112523.563000", "112523.566000", "112523.569000", "112523.572000", "112523.575000", "112523.578000", "112603.502000", "112603.505000", "112603.508000", "112603.511000", "112603.514000", "112603.517000", "112603.520000", "112603.523000", "112603.526000", "112603.529000", "112603.532000", "112603.535000", "112603.537000", "112603.540000", "112603.543000", "112603.546000", "112603.549000", "112603.552000", "112603.555000", "112603.558000", "112603.561000", "112603.564000", "112603.567000", "112603.570000", "112603.573000", "112603.576000", "112603.579000", "112643.502000", "112643.505000", "112643.508000", "112643.511000", "112643.514000", "112643.517000", "112643.520000", "112643.523000", "112643.526000", "112643.529000", "112643.532000", "112643.535000", "112643.538000", "112643.540000", "112643.543000", "112643.546000", "112643.549000", "112643.552000", "112643.555000", "112643.558000", "112643.561000", "112643.564000", "112643.567000", "112643.570000", "112643.573000", "112643.576000", "112643.579000", "112723.502000", "112723.505000", "112723.508000", "112723.511000", "112723.514000", "112723.517000", "112723.520000", "112723.523000", "112723.526000", "112723.529000", "112723.532000", "112723.535000", "112723.538000", "112723.541000", "112723.543000", "112723.546000", "112723.549000", "112723.552000", "112723.555000", "112723.558000", "112723.561000", "112723.564000", "112723.567000", "112723.570000", "112723.573000", "112723.576000", "112723.579000", "112803.502000", "112803.505000", "112803.508000", "112803.511000", "112803.514000", "112803.517000", "112803.521000", "112803.524000", "112803.527000", "112803.530000", "112803.533000", "112803.536000", "112803.539000", "112803.542000", "112803.545000", "112803.557000", "112803.559000", "112803.562000", "112803.566000", "112803.569000", "112803.572000", "112803.574000", "112803.578000", "112803.580000", "112803.583000", "112803.586000", "112803.589000", "112843.502000", "112843.505000", "112843.508000", "112843.511000", "112843.514000", "112843.517000", "112843.520000", "112843.523000", "112843.526000", "112843.529000", "112843.532000", "112843.535000", "112843.538000", "112843.541000", "112843.544000", "112843.547000", "112843.549000", "112843.553000", "112843.555000", "112843.558000", "112843.561000", "112843.564000", "112843.567000", "112843.570000", "112843.573000", "112843.576000", "112843.579000", "112923.501000", "112923.504000", "112923.507000", "112923.521000", "112923.524000", "112923.527000", "112923.530000", "112923.533000", "112923.536000", "112923.539000", "112923.541000", "112923.544000", "112923.554000", "112923.557000", "112923.560000", "112923.563000", "112923.566000", "112923.569000", "112923.572000", "112923.575000", "112923.578000", "112923.581000", "112923.584000", "112923.587000", "112923.590000", "112923.593000", "112923.596000", "113003.502000", "113003.507000", "113003.510000", "113003.513000", "113003.516000", "113003.519000", "113003.522000", "113003.531000", "113003.534000", "113003.537000", "113003.540000", "113003.543000", "113003.546000", "113003.549000", "113003.552000", "113003.555000", "113003.558000", "113003.561000", "113003.564000", "113003.567000", "113003.570000", "113003.573000", "113003.576000", "113003.579000", "113003.582000", "113003.585000", "113023.502000", "113023.505000", "113023.508000", "113023.511000", "113023.514000", "113023.517000", "113023.520000", "113023.523000", "113023.526000", "113023.529000", "113023.532000", "113023.535000", "113023.538000", "113023.541000", "113103.502000", "113103.505000", "113103.508000", "113103.511000", "113103.514000", "113103.517000", "113103.520000", "113103.523000", "113103.526000", "113103.529000", "113103.532000", "113103.535000", "113103.538000", "113103.541000", "113103.544000", "113103.547000", "113103.550000", "113103.553000", "113103.556000", "113103.559000", "113103.562000", "113103.564000", "113103.567000", "113103.571000", "113103.573000", "113103.576000", "113103.579000", "113143.501000", "113143.504000", "113143.507000", "113143.510000", "113143.513000", "113143.516000", "113143.519000", "113143.522000", "113143.525000", "113143.528000", "113143.531000", "113143.534000", "113143.537000", "113143.540000", "113143.543000", "113143.546000", "113143.549000", "113143.552000", "113143.555000", "113143.558000", "113143.561000", "113143.564000", "113143.573000", "113143.576000", "113143.579000", "113143.582000", "113143.585000", "113223.502000", "113223.505000", "113223.508000", "113223.511000", "113223.514000", "113223.517000", "113223.520000", "113223.523000", "113223.526000", "113223.529000", "113223.532000", "113223.535000", "113223.538000", "113223.541000", "113223.544000", "113223.547000", "113223.550000", "113223.553000", "113223.556000", "113223.559000", "113223.562000", "113223.565000", "113223.568000", "113223.572000", "113223.574000", "113223.577000", "113234.754000", "113234.758000", "113234.761000", "113234.765000", "113234.768000", "113234.772000", "113234.776000", "113234.779000"],
