{
  "AcquisitionMatrixPE": 104,
  "AcquisitionNumber": 1,
  "AcquisitionTime": "10:46:47.757500",
  "BandwidthPerPixelPhaseEncode": 17.17,
  "BaseResolution": 104,
  "BodyPartExamined": "BRAIN",
  "CoilString": "HC1-7;NC1_2",
  "ConsistencyInfo": "N4_VE11C_LATEST_20160120",
  "ConversionSoftware": "dcm2niix",
  "ConversionSoftwareVersion": "v1.0.20190902",
  "DerivedVendorReportedEchoSpacing": 0.000560011,
  "DeviceSerialNumber": "167006",
  "DwellTime": 2.1e-06,
  "EchoTime": 0.037,
  "EchoTrainLength": 104,
  "EffectiveEchoSpacing": 0.000560011,
  "FlipAngle": 52,
  "ImageComments": "Unaliased_MB4_PE3_LB",
  "ImageOrientationPatientDICOM": [0.999803, 0.0140581, 0.014033, -0.00488599, 0.858824, -0.512247],
  "ImageType": [
    "ORIGINAL",
    "PRIMARY",
    "M",
    "MB",
    "ND",
    "MOSAIC"
],
  "ImagingFrequency": 123.259,
  "InPlanePhaseEncodingDirectionDICOM": "COL",
  "InstitutionAddress": "Chemin_Queen-Mary_4565_Montreal_District_CA_H3W_1W5",
  "InstitutionName": "IUGM",
  "InstitutionalDepartmentName": "Department",
  "MRAcquisitionType": "2D",
  "MagneticFieldStrength": 3,
  "Manufacturer": "Siemens",
  "ManufacturersModelName": "Prisma_fit",
  "Modality": "MR",
  "MultibandAccelerationFactor": 4,
  "PartialFourier": 1,
  "PatientPosition": "HFS",
  "PercentPhaseFOV": 100,
  "PhaseEncodingDirection": "j",
  "PhaseEncodingSteps": 104,
  "PhaseResolution": 1,
  "PixelBandwidth": 2290,
  "ProcedureStepDescription": "games_shinobi",
  "ProtocolName": "func_task-shinobi_run-2",
  "PulseSequenceDetails": "%CustomerSeq%_cmrr_mbep2d_bold",
  "ReceiveCoilActiveElements": "HC1-7;NC1,2",
  "ReceiveCoilName": "HeadNeck_64",
  "ReconMatrixPE": 104,
  "RepetitionTime": 1.49,
  "SAR": 0.0373846,
  "ScanOptions": "FS",
  "ScanningSequence": "EP",
  "SequenceName": "epfid2d1_104",
  "SequenceVariant": "SK_SS",
  "SeriesDescription": "func_task-shinobi_run-2",
  "SeriesNumber": 11,
  "ShimSetting": [617, -7202, -8867, 332, -25, -192, -18, -25],
  "SliceThickness": 2,
  "SliceTiming": [0, 0.7825, 0.0975, 0.8825, 0.195, 0.98, 0.2925, 1.0775, 0.3925, 1.175, 0.49, 1.2725, 0.5875, 1.3725, 0.685, 0, 0.7825, 0.0975, 0.8825, 0.195, 0.98, 0.2925, 1.0775, 0.3925, 1.175, 0.49, 1.2725, 0.5875, 1.3725, 0.685, 0, 0.7825, 0.0975, 0.8825, 0.195, 0.98, 0.2925, 1.0775, 0.3925, 1.175, 0.49, 1.2725, 0.5875, 1.3725, 0.685, 0, 0.7825, 0.0975, 0.8825, 0.195, 0.98, 0.2925, 1.0775, 0.3925, 1.175, 0.49, 1.2725, 0.5875, 1.3725, 0.685],
  "SoftwareVersions": "syngo_MR_E11",
  "SpacingBetweenSlices": 2,
  "StationName": "MRC35049",
  "TaskName": "shinobi",
  "TotalReadoutTime": 0.0576811,
  "TxRefAmp": 253.851,
  "WipMemBlock": "2f9d6217-b1ea-41b7-ba0e-edcdc01a1136||Sequence: R016 ve11c/master r/e634e98; Dec 19 2017 11:00:25 by eja",
  "dcmmeta_affine": [
    [-1.999605417251587, -0.009771972894668579, 0.038506221026182175, 106.6116943359375],
    [-0.02811610698699951, 1.717648983001709, -1.0241539478302002, -48.68057632446289],
    [0.028066081926226616, 1.0244933366775513, 1.7174474000930786, -92.01016998291016],
    [0.0, 0.0, 0.0, 1.0]
],
  "dcmmeta_reorient_transform": [
    [0.0, -1.0, 0.0, 103.0],
    [1.0, 0.0, 0.0, 0.0],
    [0.0, 0.0, 1.0, 0.0],
    [0.0, 0.0, 0.0, 1.0]
],
  "dcmmeta_shape": [104, 104, 60, 450],
  "dcmmeta_slice_dim": 2,
  "dcmmeta_version": 0.6,
  "global": {
    "const": {
      "AcquisitionMatrix": [104, 0, 0, 104],
      "AngioFlag": "N",
      "BitsAllocated": 16,
      "BitsStored": 16,
      "BodyPartExamined": "BRAIN",
      "Columns": 832,
      "EchoNumbers": 1,
      "EchoTime": 37.0,
      "EchoTrainLength": 104,
      "FlipAngle": 52.0,
      "HighBit": 15,
      "ImageOrientationPatient": [0.99980270297953, 0.01405805371095, 0.01403304103465, -0.0048859866272, 0.85882448943166, -0.5122466432171],
      "ImagePositionPatient": [-829.90454951974, -763.69576109363, 376.21213849403],
      "ImageType": [
        "ORIGINAL",
        "PRIMARY",
        "M",
        "MB",
        "ND",
        "MOSAIC"
],
      "ImagedNucleus": "1H",
      "ImagingFrequency": 123.259043,
      "InPlanePhaseEncodingDirection": "COL",
      "MRAcquisitionType": "2D",
      "MagneticFieldStrength": 3.0,
      "Manufacturer": "SIEMENS",
      "ManufacturerModelName": "Prisma_fit",
      "Modality": "MR",
      "NumberOfAverages": 1.0,
      "NumberOfPhaseEncodingSteps": 104,
      "PercentPhaseFieldOfView": 100.0,
      "PercentSampling": 100.0,
      "PerformedProcedureStepStartTime": "102822.307000",
      "PhotometricInterpretation": "MONOCHROME2",
      "PixelBandwidth": 2290.0,
      "PixelRepresentation": 0,
      "PixelSpacing": [2.0, 2.0],
      "ProtocolName": "func_task-shinobi_run-2",
      "RepetitionTime": 1490.0,
      "Rows": 832,
      "SAR": 0.03738457052777,
      "SamplesPerPixel": 1,
      "ScanOptions": "FS",
      "ScanningSequence": "EP",
      "SequenceName": "epfid2d1_104",
      "SequenceVariant": [
        "SK",
        "SS"
],
      "SeriesDescription": "func_task-shinobi_run-2",
      "SeriesNumber": 11,
      "SeriesTime": "104804.281000",
      "SliceLocation": -52.030508560691,
      "SliceThickness": 2.0,
      "SmallestImagePixelValue": 0,
      "SoftwareVersions": "syngo MR E11",
      "SpacingBetweenSlices": 1.9999999579476,
      "SpecificCharacterSet": "ISO_IR 100",
      "StudyID": "1",
      "StudyTime": "102822.249000",
      "TransmitCoilName": "Body",
      "VariableFlipAngleFlag": "N",
      "WindowCenterWidthExplanation": "Algo1",
      "dBdt": 0.0},
    "slices": {}
  },
  "time": {
    "samples": {
      "AcquisitionNumber": [1, 2, 3, 4, 5, 6, 7, 8, 9, 10, 11, 12, 13, 14, 15, 16, 17, 18, 19, 20, 21, 22, 23, 24, 25, 26, 27, 28, 29, 30, 31, 32, 33, 34, 35, 36, 37, 38, 39, 40, 41, 42, 43, 44, 45, 46, 47, 48, 49, 50, 51, 52, 53, 54, 55, 56, 57, 58, 59, 60, 61, 62, 63, 64, 65, 66, 67, 68, 69, 70, 71, 72, 73, 74, 75, 76, 77, 78, 79, 80, 81, 82, 83, 84, 85, 86, 87, 88, 89, 90, 91, 92, 93, 94, 95, 96, 97, 98, 99, 100, 101, 102, 103, 104, 105, 106, 107, 108, 109, 110, 111, 112, 113, 114, 115, 116, 117, 118, 119, 120, 121, 122, 123, 124, 125, 126, 127, 128, 129, 130, 131, 132, 133, 134, 135, 136, 137, 138, 139, 140, 141, 142, 143, 144, 145, 146, 147, 148, 149, 150, 151, 152, 153, 154, 155, 156, 157, 158, 159, 160, 161, 162, 163, 164, 165, 166, 167, 168, 169, 170, 171, 172, 173, 174, 175, 176, 177, 178, 179, 180, 181, 182, 183, 184, 185, 186, 187, 188, 189, 190, 191, 192, 193, 194, 195, 196, 197, 198, 199, 200, 201, 202, 203, 204, 205, 206, 207, 208, 209, 210, 211, 212, 213, 214, 215, 216, 217, 218, 219, 220, 221, 222, 223, 224, 225, 226, 227, 228, 229, 230, 231, 232, 233, 234, 235, 236, 237, 238, 239, 240, 241, 242, 243, 244, 245, 246, 247, 248, 249, 250, 251, 252, 253, 254, 255, 256, 257, 258, 259, 260, 261, 262, 263, 264, 265, 266, 267, 268, 269, 270, 271, 272, 273, 274, 275, 276, 277, 278, 279, 280, 281, 282, 283, 284, 285, 286, 287, 288, 289, 290, 291, 292, 293, 294, 295, 296, 297, 298, 299, 300, 301, 302, 303, 304, 305, 306, 307, 308, 309, 310, 311, 312, 313, 314, 315, 316, 317, 318, 319, 320, 321, 322, 323, 324, 325, 326, 327, 328, 329, 330, 331, 332, 333, 334, 335, 336, 337, 338, 339, 340, 341, 342, 343, 344, 345, 346, 347, 348, 349, 350, 351, 352, 353, 354, 355, 356, 357, 358, 359, 360, 361, 362, 363, 364, 365, 366, 367, 368, 369, 370, 371, 372, 373, 374, 375, 376, 377, 378, 379, 380, 381, 382, 383, 384, 385, 386, 387, 388, 389, 390, 391, 392, 393, 394, 395, 396, 397, 398, 399, 400, 401, 402, 403, 404, 405, 406, 407, 408, 409, 410, 411, 412, 413, 414, 415, 416, 417, 418, 419, 420, 421, 422, 423, 424, 425, 426, 427, 428, 429, 430, 431, 432, 433, 434, 435, 436, 437, 438, 439, 440, 441, 442, 443, 444, 445, 446, 447, 448, 449, 450],
      "AcquisitionTime": ["104647.757500", "104649.247500", "104650.737500", "104652.227500", "104653.717500", "104655.207500", "104656.697500", "104658.187500", "104659.677500", "104701.167500", "104702.657500", "104704.147500", "104705.637500", "104707.127500", "104708.617500", "104710.107500", "104711.597500", "104713.087500", "104714.577500", "104716.067500", "104717.557500", "104719.047500", "104720.537500", "104722.027500", "104723.517500", "104725.007500", "104726.497500", "104727.987500", "104729.477500", "104730.967500", "104732.457500", "104733.947500", "104735.437500", "104736.927500", "104738.417500", "104739.907500", "104741.397500", "104742.887500", "104744.377500", "104745.867500", "104747.357500", "104748.847500", "104750.337500", "104751.827500", "104753.317500", "104754.807500", "104756.297500", "104757.787500", "104759.277500", "104800.767500", "104802.257500", "104803.747500", "104805.237500", "104806.727500", "104808.217500", "104809.707500", "104811.197500", "104812.687500", "104814.177500", "104815.667500", "104817.157500", "104818.647500", "104820.137500", "104821.627500", "104823.117500", "104824.607500", "104826.097500", "104827.587500", "104829.077500", "104830.567500", "104832.057500", "104833.547500", "104835.037500", "104836.527500", "104838.017500", "104839.507500", "104840.997500", "104842.487500", "104843.977500", "104845.467500", "104846.957500", "104848.447500", "104849.937500", "104851.427500", "104852.917500", "104854.407500", "104855.897500", "104857.387500", "104858.877500", "104900.367500", "104901.857500", "104903.347500", "104904.837500", "104906.327500", "104907.817500", "104909.307500", "104910.797500", "104912.287500", "104913.777500", "104915.267500", "104916.757500", "104918.247500", "104919.737500", "104921.227500", "104922.717500", "104924.207500", "104925.697500", "104927.187500", "104928.677500", "104930.167500", "104931.657500", "104933.147500", "104934.637500", "104936.127500", "104937.617500", "104939.107500", "104940.597500", "104942.087500", "104943.577500", "104945.067500", "104946.557500", "104948.047500", "104949.537500", "104951.027500", "104952.517500", "104954.007500", "104955.497500", "104956.987500", "104958.477500", "104959.967500", "105001.457500", "105002.947500", "105004.437500", "105005.927500", "105007.417500", "105008.907500", "105010.397500", "105011.887500", "105013.377500", "105014.867500", "105016.357500", "105017.847500", "105019.337500", "105020.827500", "105022.317500", "105023.807500", "105025.297500", "105026.787500", "105028.277500", "105029.767500", "105031.257500", "105032.747500", "105034.237500", "105035.727500", "105037.217500", "105038.707500", "105040.197500", "105041.687500", "105043.177500", "105044.667500", "105046.157500", "105047.647500", "105049.137500", "105050.627500", "105052.117500", "105053.607500", "105055.097500", "105056.587500", "105058.077500", "105059.567500", "105101.057500", "105102.547500", "105104.037500", "105105.527500", "105107.017500", "105108.507500", "105109.997500", "105111.487500", "105112.977500", "105114.467500", "105115.957500", "105117.447500", "105118.937500", "105120.427500", "105121.917500", "105123.407500", "105124.897500", "105126.387500", "105127.877500", "105129.367500", "105130.857500", "105132.347500", "105133.837500", "105135.327500", "105136.817500", "105138.307500", "105139.797500", "105141.287500", "105142.777500", "105144.267500", "105145.757500", "105147.247500", "105148.737500", "105150.227500", "105151.717500", "105153.207500", "105154.697500", "105156.187500", "105157.677500", "105159.167500", "105200.657500", "105202.147500", "105203.637500", "105205.127500", "105206.617500", "105208.107500", "105209.597500", "105211.087500", "105212.577500", "105214.067500", "105215.557500", "105217.047500", "105218.537500", "105220.027500", "105221.517500", "105223.007500", "105224.497500", "105225.987500", "105227.477500", "105228.967500", "105230.457500", "105231.947500", "105233.437500", "105234.927500", "105236.417500", "105237.907500", "105239.397500", "105240.887500", "105242.377500", "105243.867500", "105245.357500", "105246.847500", "105248.337500", "105249.827500", "105251.317500", "105252.807500", "105254.297500", "105255.787500", "105257.277500", "105258.767500", "105300.257500", "105301.747500", "105303.237500", "105304.727500", "105306.217500", "105307.707500", "105309.197500", "105310.687500", "105312.177500", "105313.667500", "105315.157500", "105316.647500", "105318.137500", "105319.627500", "105321.117500", "105322.607500", "105324.097500", "105325.587500", "105327.077500", "105328.567500", "105330.057500", "105331.547500", "105333.037500", "105334.527500", "105336.017500", "105337.507500", "105338.997500", "105340.487500", "105341.977500", "105343.467500", "105344.957500", "105346.447500", "105347.937500", "105349.427500", "105350.917500", "105352.407500", "105353.897500", "105355.387500", "105356.877500", "105358.367500", "105359.857500", "105401.347500", "105402.837500", "105404.327500", "105405.817500", "105407.307500", "105408.797500", "105410.287500", "105411.777500", "105413.267500", "105414.757500", "105416.247500", "105417.737500", "105419.227500", "105420.717500", "105422.207500", "105423.697500", "105425.187500", "105426.677500", "105428.167500", "105429.657500", "105431.147500", "105432.637500", "105434.127500", "105435.617500", "105437.107500", "105438.597500", "105440.087500", "105441.577500", "105443.067500", "105444.557500", "105446.047500", "105447.537500", "105449.027500", "105450.517500", "105452.007500", "105453.497500", "105454.987500", "105456.477500", "105457.967500", "105459.457500", "105500.947500", "105502.437500", "105503.927500", "105505.417500", "105506.907500", "105508.397500", "105509.887500", "105511.377500", "105512.867500", "105514.357500", "105515.847500", "105517.337500", "105518.827500", "105520.317500", "105521.807500", "105523.297500", "105524.787500", "105526.277500", "105527.767500", "105529.257500", "105530.747500", "105532.237500", "105533.727500", "105535.217500", "105536.707500", "105538.197500", "105539.687500", "105541.177500", "105542.667500", "105544.157500", "105545.647500", "105547.137500", "105548.627500", "105550.117500", "105551.607500", "105553.097500", "105554.587500", "105556.077500", "105557.567500", "105559.057500", "105600.547500", "105602.037500", "105603.527500", "105605.017500", "105606.507500", "105607.997500", "105609.487500", "105610.977500", "105612.467500", "105613.957500", "105615.447500", "105616.937500", "105618.427500", "105619.917500", "105621.407500", "105622.897500", "105624.387500", "105625.877500", "105627.367500", "105628.857500", "105630.347500", "105631.837500", "105633.327500", "105634.817500", "105636.307500", "105637.797500", "105639.287500", "105640.777500", "105642.267500", "105643.757500", "105645.247500", "105646.737500", "105648.227500", "105649.717500", "105651.207500", "105652.697500", "105654.187500", "105655.677500", "105657.167500", "105658.657500", "105700.147500", "105701.637500", "105703.127500", "105704.617500", "105706.107500", "105707.597500", "105709.087500", "105710.577500", "105712.067500", "105713.557500", "105715.047500", "105716.537500", "105718.027500", "105719.517500", "105721.007500", "105722.497500", "105723.987500", "105725.477500", "105726.967500", "105728.457500", "105729.947500", "105731.437500", "105732.927500", "105734.417500", "105735.907500", "105737.397500", "105738.887500", "105740.377500", "105741.867500", "105743.357500", "105744.847500", "105746.337500", "105747.827500", "105749.317500", "105750.807500", "105752.297500", "105753.787500", "105755.277500", "105756.767500"],
      "ContentTime": ["104804.283000", "104804.291000", "104804.294000", "104804.297000", "104804.305000", "104804.307000", "104804.310000", "104804.313000", "104804.316000", "104804.319000", "104804.322000", "104804.324000", "104804.327000", "104804.330000", "104804.333000", "104804.338000", "104804.341000", "104804.344000", "104804.347000", "104804.349000", "104804.352000", "104804.355000", "104804.358000", "104824.253000", "104824.256000", "104824.259000", "104824.262000", "104824.265000", "104824.268000", "104824.271000", "104824.273000", "104824.276000", "104824.279000", "104824.282000", "104824.285000", "104824.288000", "104824.290000", "104824.293000", "104824.296000", "104824.299000", "104824.302000", "104824.305000", "104824.308000", "104844.253000", "104844.256000", "104844.259000", "104844.262000", "104844.264000", "104844.267000", "104844.270000", "104844.273000", "104844.276000", "104844.279000", "104844.282000", "104844.284000", "104844.287000", "104844.290000", "104844.293000", "104844.296000", "104844.299000", "104844.301000", "104844.304000", "104844.307000", "104904.253000", "104904.256000", "104904.270000", "104904.273000", "104904.287000", "104904.289000", "104904.292000", "104904.295000", "104904.298000", "104904.301000", "104904.304000", "104904.306000", "104904.309000", "104904.312000", "104904.315000", "104904.318000", "104904.321000", "104904.324000", "104904.326000", "104904.329000", "104904.332000", "104924.253000", "104924.256000", "104924.259000", "104924.262000", "104924.264000", "104924.267000", "104924.270000", "104924.273000", "104924.276000", "104924.279000", "104924.281000", "104924.284000", "104924.288000", "104924.291000", "104924.294000", "104924.297000", "104924.300000", "104924.303000", "104924.306000", "104924.315000", "105004.254000", "105004.257000", "105004.260000", "105004.263000", "105004.265000", "105004.268000", "105004.277000", "105004.279000", "105004.282000", "105004.285000", "105004.288000", "105004.291000", "105004.294000", "105004.297000", "105004.299000", "105004.302000", "105004.305000", "105004.308000", "105004.311000", "105004.314000", "105004.317000", "105004.320000", "105004.322000", "105004.325000", "105004.328000", "105004.331000", "105004.334000", "105044.253000", "105044.256000", "105044.259000", "105044.261000", "105044.264000", "105044.267000", "105044.270000", "105044.273000", "105044.276000", "105044.278000", "105044.281000", "105044.284000", "105044.287000", "105044.290000", "105044.293000", "105044.296000", "105044.299000", "105044.302000", "105044.304000", "105044.307000", "105044.310000", "105044.313000", "105044.316000", "105044.319000", "105044.322000", "105044.324000", "105044.327000", "105124.253000", "105124.264000", "105124.267000", "105124.270000", "105124.273000", "105124.276000", "105124.279000", "105124.282000", "105124.285000", "105124.287000", "105124.290000", "105124.293000", "105124.296000", "105124.299000", "105124.302000", "105124.305000", "105124.308000", "105124.310000", "105124.313000", "105124.316000", "105124.319000", "105124.322000", "105124.325000", "105124.328000", "105124.330000", "105124.333000", "105124.336000", "105204.253000", "105204.256000", "105204.259000", "105204.262000", "105204.265000", "105204.267000", "105204.270000", "105204.273000", "105204.276000", "105204.279000", "105204.282000", "105204.285000", "105204.288000", "105204.291000", "105204.294000", "105204.296000", "105204.299000", "105204.302000", "105204.305000", "105204.308000", "105204.311000", "105204.313000", "105204.316000", "105204.319000", "105204.322000", "105204.325000", "105204.328000", "105244.253000", "105244.256000", "105244.259000", "105244.262000", "105244.265000", "105244.268000", "105244.270000", "105244.273000", "105244.276000", "105244.279000", "105244.282000", "105244.285000", "105244.288000", "105244.291000", "105244.293000", "105244.296000", "105244.299000", "105244.302000", "105244.305000", "105244.308000", "105244.310000", "105244.313000", "105244.316000", "105244.319000", "105244.322000", "105244.325000", "105244.328000", "105324.253000", "105324.256000", "105324.259000", "105324.262000", "105324.264000", "105324.267000", "105324.270000", "105324.273000", "105324.276000", "105324.279000", "105324.282000", "105324.285000", "105324.288000", "105324.290000", "105324.293000", "105324.307000", "105324.311000", "105324.314000", "105324.317000", "105324.320000", "105324.323000", "105324.326000", "105324.329000", "105324.332000", "105324.335000", "105324.337000", "105404.253000", "105404.256000", "105404.259000", "105404.262000", "105404.265000", "105404.268000", "105404.271000", "105404.274000", "105404.276000", "105404.279000", "105404.282000", "105404.285000", "105404.288000", "105404.291000", "105404.294000", "105404.297000", "105404.300000", "105404.302000", "105404.305000", "105404.308000", "105404.311000", "105404.314000", "105404.317000", "105404.320000", "105404.323000", "105404.325000", "105404.328000", "105444.253000", "105444.256000", "105444.259000", "105444.262000", "105444.265000", "105444.268000", "105444.270000", "105444.273000", "105444.276000", "105444.279000", "105444.282000", "105444.285000", "105444.288000", "105444.291000", "105444.294000", "105444.296000", "105444.299000", "105444.302000", "105444.305000", "105444.308000", "105444.311000", "105444.314000", "105444.317000", "105444.319000", "105444.322000", "105444.325000", "105444.328000", "105524.253000", "105524.256000", "105524.259000", "105524.261000", "105524.264000", "105524.267000", "105524.270000", "105524.273000", "105524.276000", "105524.279000", "105524.282000", "105524.285000", "105524.288000", "105524.290000", "105524.293000", "105524.296000", "105524.299000", "105524.302000", "105524.305000", "105524.308000", "105524.311000", "105524.314000", "105524.316000", "105524.319000", "105524.322000", "105524.325000", "105524.328000", "105604.253000", "105604.256000", "105604.259000", "105604.262000", "105604.265000", "105604.267000", "105604.270000", "105604.273000", "105604.276000", "105604.279000", "105604.282000", "105604.285000", "105604.288000", "105604.291000", "105604.293000", "105604.297000", "105604.299000", "105604.302000", "105604.305000", "105604.308000", "105604.311000", "105604.314000", "105604.317000", "105604.320000", "105604.323000", "105604.325000", "105604.328000", "105644.253000", "105644.256000", "105644.259000", "105644.262000", "105644.265000", "105644.268000", "105644.271000", "105644.273000", "105644.276000", "105644.279000", "105644.282000", "105644.285000", "105644.288000", "105644.291000", "105644.294000", "105644.297000", "105644.300000", "105644.302000", "105644.305000", "105644.308000", "105644.311000", "105644.314000", "105644.317000", "105644.320000", "105644.323000", "105644.325000", "105644.328000", "105724.253000", "105724.261000", "105724.264000", "105724.267000", "105724.270000", "105724.273000", "105724.276000", "105724.279000", "105724.282000", "105724.285000", "105724.288000", "105724.290000", "105724.293000", "105724.296000", "105724.299000", "105724.302000", "105724.305000", "105724.308000", "105724.311000", "105724.313000", "105724.316000", "105724.319000", "105724.322000", "105724.325000", "105724.328000", "105724.331000", "105724.334000", "105759.278000", "105759.282000", "105759.284000", "105759.287000", "105759.290000", "105759.293000", "105759.296000", "105759.299000", "105759.302000", "105759.304000", "105759.307000", "105759.310000", "105759.313000", "105759.316000", "105759.319000", "105759.344000", "105759.347000", "105759.350000", "105759.352000", "105759.355000", "105759.358000", "105759.361000", "105759.364000"],
