{
  "AcquisitionMatrixPE": 104,
  "AcquisitionNumber": 1,
  "AcquisitionTime": "10:33:59.677500",
  "BandwidthPerPixelPhaseEncode": 17.17,
  "BaseResolution": 104,
  "BodyPartExamined": "BRAIN",
  "CoilString": "HC1-7;NC1_2",
  "ConsistencyInfo": "N4_VE11C_LATEST_20160120",
  "ConversionSoftware": "dcm2niix",
  "ConversionSoftwareVersion": "v1.0.20190902",
  "DerivedVendorReportedEchoSpacing": 0.000560011,
  "DeviceSerialNumber": "167006",
  "DwellTime": 2.1e-06,
  "EchoTime": 0.037,
  "EchoTrainLength": 104,
  "EffectiveEchoSpacing": 0.000560011,
  "FlipAngle": 52,
  "ImageComments": "Unaliased_MB4_PE3_LB",
  "ImageOrientationPatientDICOM": [0.999803, 0.0140581, 0.014033, -0.00488599, 0.858824, -0.512247],
  "ImageType": [
    "ORIGINAL",
    "PRIMARY",
    "M",
    "MB",
    "ND",
    "MOSAIC"
],
  "ImagingFrequency": 123.259,
  "InPlanePhaseEncodingDirectionDICOM": "COL",
  "InstitutionAddress": "Chemin_Queen-Mary_4565_Montreal_District_CA_H3W_1W5",
  "InstitutionName": "IUGM",
  "InstitutionalDepartmentName": "Department",
  "MRAcquisitionType": "2D",
  "MagneticFieldStrength": 3,
  "Manufacturer": "Siemens",
  "ManufacturersModelName": "Prisma_fit",
  "Modality": "MR",
  "MultibandAccelerationFactor": 4,
  "PartialFourier": 1,
  "PatientPosition": "HFS",
  "PercentPhaseFOV": 100,
  "PhaseEncodingDirection": "j",
  "PhaseEncodingSteps": 104,
  "PhaseResolution": 1,
  "PixelBandwidth": 2290,
  "ProcedureStepDescription": "games_shinobi",
  "ProtocolName": "func_task-shinobi_run-1",
  "PulseSequenceDetails": "%CustomerSeq%_cmrr_mbep2d_bold",
  "ReceiveCoilActiveElements": "HC1-7;NC1,2",
  "ReceiveCoilName": "HeadNeck_64",
  "ReconMatrixPE": 104,
  "RepetitionTime": 1.49,
  "SAR": 0.0373846,
  "ScanOptions": "FS",
  "ScanningSequence": "EP",
  "SequenceName": "epfid2d1_104",
  "SequenceVariant": "SK_SS",
  "SeriesDescription": "func_task-shinobi_run-1",
  "SeriesNumber": 9,
  "ShimSetting": [617, -7202, -8867, 332, -25, -192, -18, -25],
  "SliceThickness": 2,
  "SliceTiming": [0, 0.785, 0.1, 0.8825, 0.1975, 0.98, 0.295, 1.08, 0.3925, 1.1775, 0.49, 1.275, 0.59, 1.3725, 0.6875, 0, 0.785, 0.1, 0.8825, 0.1975, 0.98, 0.295, 1.08, 0.3925, 1.1775, 0.49, 1.275, 0.59, 1.3725, 0.6875, 0, 0.785, 0.1, 0.8825, 0.1975, 0.98, 0.295, 1.08, 0.3925, 1.1775, 0.49, 1.275, 0.59, 1.3725, 0.6875, 0, 0.785, 0.1, 0.8825, 0.1975, 0.98, 0.295, 1.08, 0.3925, 1.1775, 0.49, 1.275, 0.59, 1.3725, 0.6875],
  "SoftwareVersions": "syngo_MR_E11",
  "SpacingBetweenSlices": 2,
  "StationName": "MRC35049",
  "TaskName": "shinobi",
  "TotalReadoutTime": 0.0576811,
  "TxRefAmp": 253.851,
  "WipMemBlock": "55e613be-c2c2-4fb2-8ecc-3a2a15b22430||Sequence: R016 ve11c/master r/e634e98; Dec 19 2017 11:00:25 by eja",
  "dcmmeta_affine": [
    [-1.999605417251587, -0.009771972894668579, 0.038506221026182175, 106.6116943359375],
    [-0.02811610698699951, 1.717648983001709, -1.0241539478302002, -48.68057632446289],
    [0.028066081926226616, 1.0244933366775513, 1.7174474000930786, -92.01016998291016],
    [0.0, 0.0, 0.0, 1.0]
],
  "dcmmeta_reorient_transform": [
    [0.0, -1.0, 0.0, 103.0],
    [1.0, 0.0, 0.0, 0.0],
    [0.0, 0.0, 1.0, 0.0],
    [0.0, 0.0, 0.0, 1.0]
],
  "dcmmeta_shape": [104, 104, 60, 493],
  "dcmmeta_slice_dim": 2,
  "dcmmeta_version": 0.6,
  "global": {
    "const": {
      "AcquisitionMatrix": [104, 0, 0, 104],
      "AngioFlag": "N",
      "BitsAllocated": 16,
      "BitsStored": 16,
      "BodyPartExamined": "BRAIN",
      "Columns": 832,
      "EchoNumbers": 1,
      "EchoTime": 37.0,
      "EchoTrainLength": 104,
      "FlipAngle": 52.0,
      "HighBit": 15,
      "ImageOrientationPatient": [0.99980270297953, 0.01405805371095, 0.01403304103465, -0.0048859866272, 0.85882448943166, -0.5122466432171],
      "ImagePositionPatient": [-829.90454951974, -763.69576109363, 376.21213849403],
      "ImageType": [
        "ORIGINAL",
        "PRIMARY",
        "M",
        "MB",
        "ND",
        "MOSAIC"
],
      "ImagedNucleus": "1H",
      "ImagingFrequency": 123.259038,
      "InPlanePhaseEncodingDirection": "COL",
      "MRAcquisitionType": "2D",
      "MagneticFieldStrength": 3.0,
      "Manufacturer": "SIEMENS",
      "ManufacturerModelName": "Prisma_fit",
      "Modality": "MR",
      "NumberOfAverages": 1.0,
      "NumberOfPhaseEncodingSteps": 104,
      "PercentPhaseFieldOfView": 100.0,
      "PercentSampling": 100.0,
      "PerformedProcedureStepStartTime": "102822.307000",
      "PhotometricInterpretation": "MONOCHROME2",
      "PixelBandwidth": 2290.0,
      "PixelRepresentation": 0,
      "PixelSpacing": [2.0, 2.0],
      "ProtocolName": "func_task-shinobi_run-1",
      "RepetitionTime": 1490.0,
      "Rows": 832,
      "SAR": 0.03738457052777,
      "SamplesPerPixel": 1,
      "ScanOptions": "FS",
      "ScanningSequence": "EP",
      "SequenceName": "epfid2d1_104",
      "SequenceVariant": [
        "SK",
        "SS"
],
      "SeriesDescription": "func_task-shinobi_run-1",
      "SeriesNumber": 9,
      "SeriesTime": "103518.271000",
      "SliceLocation": -52.030508560691,
      "SliceThickness": 2.0,
      "SmallestImagePixelValue": 0,
      "SoftwareVersions": "syngo MR E11",
      "SpacingBetweenSlices": 1.9999999579476,
      "SpecificCharacterSet": "ISO_IR 100",
      "StudyID": "1",
      "StudyTime": "102822.249000",
      "TransmitCoilName": "Body",
      "VariableFlipAngleFlag": "N",
      "WindowCenterWidthExplanation": "Algo1",
      "dBdt": 0.0},
    "slices": {}
  },
  "time": {
    "samples": {
      "AcquisitionNumber": [1, 2, 3, 4, 5, 6, 7, 8, 9, 10, 11, 12, 13, 14, 15, 16, 17, 18, 19, 20, 21, 22, 23, 24, 25, 26, 27, 28, 29, 30, 31, 32, 33, 34, 35, 36, 37, 38, 39, 40, 41, 42, 43, 44, 45, 46, 47, 48, 49, 50, 51, 52, 53, 54, 55, 56, 57, 58, 59, 60, 61, 62, 63, 64, 65, 66, 67, 68, 69, 70, 71, 72, 73, 74, 75, 76, 77, 78, 79, 80, 81, 82, 83, 84, 85, 86, 87, 88, 89, 90, 91, 92, 93, 94, 95, 96, 97, 98, 99, 100, 101, 102, 103, 104, 105, 106, 107, 108, 109, 110, 111, 112, 113, 114, 115, 116, 117, 118, 119, 120, 121, 122, 123, 124, 125, 126, 127, 128, 129, 130, 131, 132, 133, 134, 135, 136, 137, 138, 139, 140, 141, 142, 143, 144, 145, 146, 147, 148, 149, 150, 151, 152, 153, 154, 155, 156, 157, 158, 159, 160, 161, 162, 163, 164, 165, 166, 167, 168, 169, 170, 171, 172, 173, 174, 175, 176, 177, 178, 179, 180, 181, 182, 183, 184, 185, 186, 187, 188, 189, 190, 191, 192, 193, 194, 195, 196, 197, 198, 199, 200, 201, 202, 203, 204, 205, 206, 207, 208, 209, 210, 211, 212, 213, 214, 215, 216, 217, 218, 219, 220, 221, 222, 223, 224, 225, 226, 227, 228, 229, 230, 231, 232, 233, 234, 235, 236, 237, 238, 239, 240, 241, 242, 243, 244, 245, 246, 247, 248, 249, 250, 251, 252, 253, 254, 255, 256, 257, 258, 259, 260, 261, 262, 263, 264, 265, 266, 267, 268, 269, 270, 271, 272, 273, 274, 275, 276, 277, 278, 279, 280, 281, 282, 283, 284, 285, 286, 287, 288, 289, 290, 291, 292, 293, 294, 295, 296, 297, 298, 299, 300, 301, 302, 303, 304, 305, 306, 307, 308, 309, 310, 311, 312, 313, 314, 315, 316, 317, 318, 319, 320, 321, 322, 323, 324, 325, 326, 327, 328, 329, 330, 331, 332, 333, 334, 335, 336, 337, 338, 339, 340, 341, 342, 343, 344, 345, 346, 347, 348, 349, 350, 351, 352, 353, 354, 355, 356, 357, 358, 359, 360, 361, 362, 363, 364, 365, 366, 367, 368, 369, 370, 371, 372, 373, 374, 375, 376, 377, 378, 379, 380, 381, 382, 383, 384, 385, 386, 387, 388, 389, 390, 391, 392, 393, 394, 395, 396, 397, 398, 399, 400, 401, 402, 403, 404, 405, 406, 407, 408, 409, 410, 411, 412, 413, 414, 415, 416, 417, 418, 419, 420, 421, 422, 423, 424, 425, 426, 427, 428, 429, 430, 431, 432, 433, 434, 435, 436, 437, 438, 439, 440, 441, 442, 443, 444, 445, 446, 447, 448, 449, 450, 451, 452, 453, 454, 455, 456, 457, 458, 459, 460, 461, 462, 463, 464, 465, 466, 467, 468, 469, 470, 471, 472, 473, 474, 475, 476, 477, 478, 479, 480, 481, 482, 483, 484, 485, 486, 487, 488, 489, 490, 491, 492, 493],
      "AcquisitionTime": ["103359.677500", "103401.167500", "103402.657500", "103404.147500", "103405.637500", "103407.127500", "103408.617500", "103410.107500", "103411.597500", "103413.087500", "103414.577500", "103416.067500", "103417.557500", "103419.047500", "103420.537500", "103422.027500", "103423.517500", "103425.007500", "103426.497500", "103427.987500", "103429.477500", "103430.967500", "103432.457500", "103433.947500", "103435.437500", "103436.927500", "103438.417500", "103439.907500", "103441.397500", "103442.887500", "103444.377500", "103445.867500", "103447.357500", "103448.847500", "103450.337500", "103451.827500", "103453.317500", "103454.807500", "103456.297500", "103457.787500", "103459.277500", "103500.767500", "103502.257500", "103503.747500", "103505.237500", "103506.727500", "103508.217500", "103509.707500", "103511.197500", "103512.687500", "103514.177500", "103515.667500", "103517.157500", "103518.647500", "103520.137500", "103521.627500", "103523.117500", "103524.607500", "103526.097500", "103527.587500", "103529.077500", "103530.567500", "103532.057500", "103533.547500", "103535.037500", "103536.527500", "103538.017500", "103539.507500", "103540.997500", "103542.487500", "103543.977500", "103545.467500", "103546.957500", "103548.447500", "103549.937500", "103551.427500", "103552.917500", "103554.407500", "103555.897500", "103557.387500", "103558.877500", "103600.367500", "103601.857500", "103603.347500", "103604.837500", "103606.327500", "103607.817500", "103609.307500", "103610.797500", "103612.287500", "103613.777500", "103615.267500", "103616.757500", "103618.247500", "103619.737500", "103621.227500", "103622.717500", "103624.207500", "103625.697500", "103627.187500", "103628.677500", "103630.167500", "103631.657500", "103633.147500", "103634.637500", "103636.127500", "103637.617500", "103639.107500", "103640.597500", "103642.087500", "103643.577500", "103645.067500", "103646.557500", "103648.047500", "103649.537500", "103651.027500", "103652.517500", "103654.007500", "103655.497500", "103656.987500", "103658.477500", "103659.967500", "103701.457500", "103702.947500", "103704.437500", "103705.927500", "103707.417500", "103708.907500", "103710.397500", "103711.887500", "103713.377500", "103714.867500", "103716.357500", "103717.847500", "103719.337500", "103720.827500", "103722.317500", "103723.807500", "103725.297500", "103726.787500", "103728.277500", "103729.767500", "103731.257500", "103732.747500", "103734.237500", "103735.727500", "103737.217500", "103738.707500", "103740.197500", "103741.687500", "103743.177500", "103744.667500", "103746.157500", "103747.647500", "103749.137500", "103750.627500", "103752.117500", "103753.607500", "103755.097500", "103756.587500", "103758.077500", "103759.567500", "103801.057500", "103802.547500", "103804.037500", "103805.527500", "103807.017500", "103808.507500", "103809.997500", "103811.487500", "103812.977500", "103814.467500", "103815.957500", "103817.447500", "103818.937500", "103820.427500", "103821.917500", "103823.407500", "103824.897500", "103826.387500", "103827.877500", "103829.367500", "103830.857500", "103832.347500", "103833.837500", "103835.327500", "103836.817500", "103838.307500", "103839.797500", "103841.287500", "103842.777500", "103844.267500", "103845.757500", "103847.247500", "103848.737500", "103850.227500", "103851.717500", "103853.207500", "103854.697500", "103856.187500", "103857.677500", "103859.167500", "103900.657500", "103902.147500", "103903.637500", "103905.127500", "103906.617500", "103908.107500", "103909.597500", "103911.087500", "103912.577500", "103914.067500", "103915.557500", "103917.047500", "103918.537500", "103920.027500", "103921.517500", "103923.007500", "103924.497500", "103925.987500", "103927.477500", "103928.967500", "103930.457500", "103931.947500", "103933.437500", "103934.927500", "103936.417500", "103937.907500", "103939.397500", "103940.887500", "103942.377500", "103943.867500", "103945.357500", "103946.847500", "103948.337500", "103949.827500", "103951.317500", "103952.807500", "103954.297500", "103955.787500", "103957.277500", "103958.767500", "104000.257500", "104001.747500", "104003.237500", "104004.727500", "104006.217500", "104007.707500", "104009.197500", "104010.687500", "104012.177500", "104013.667500", "104015.157500", "104016.647500", "104018.137500", "104019.627500", "104021.117500", "104022.607500", "104024.097500", "104025.587500", "104027.077500", "104028.567500", "104030.057500", "104031.547500", "104033.037500", "104034.527500", "104036.017500", "104037.507500", "104038.997500", "104040.487500", "104041.977500", "104043.467500", "104044.957500", "104046.447500", "104047.937500", "104049.427500", "104050.917500", "104052.407500", "104053.897500", "104055.387500", "104056.877500", "104058.367500", "104059.857500", "104101.347500", "104102.837500", "104104.327500", "104105.817500", "104107.307500", "104108.797500", "104110.287500", "104111.777500", "104113.267500", "104114.757500", "104116.247500", "104117.737500", "104119.227500", "104120.717500", "104122.207500", "104123.697500", "104125.187500", "104126.677500", "104128.167500", "104129.657500", "104131.147500", "104132.637500", "104134.127500", "104135.617500", "104137.107500", "104138.597500", "104140.087500", "104141.577500", "104143.067500", "104144.557500", "104146.047500", "104147.537500", "104149.027500", "104150.517500", "104152.007500", "104153.497500", "104154.987500", "104156.477500", "104157.967500", "104159.457500", "104200.947500", "104202.437500", "104203.927500", "104205.417500", "104206.907500", "104208.397500", "104209.887500", "104211.377500", "104212.867500", "104214.357500", "104215.847500", "104217.337500", "104218.827500", "104220.317500", "104221.807500", "104223.297500", "104224.787500", "104226.277500", "104227.767500", "104229.257500", "104230.747500", "104232.237500", "104233.727500", "104235.217500", "104236.707500", "104238.197500", "104239.687500", "104241.177500", "104242.667500", "104244.157500", "104245.647500", "104247.137500", "104248.627500", "104250.117500", "104251.607500", "104253.097500", "104254.587500", "104256.077500", "104257.567500", "104259.057500", "104300.547500", "104302.037500", "104303.527500", "104305.017500", "104306.507500", "104307.997500", "104309.487500", "104310.977500", "104312.467500", "104313.957500", "104315.447500", "104316.937500", "104318.427500", "104319.917500", "104321.407500", "104322.897500", "104324.387500", "104325.877500", "104327.367500", "104328.857500", "104330.347500", "104331.837500", "104333.327500", "104334.817500", "104336.307500", "104337.797500", "104339.287500", "104340.777500", "104342.267500", "104343.757500", "104345.247500", "104346.737500", "104348.227500", "104349.717500", "104351.207500", "104352.697500", "104354.187500", "104355.677500", "104357.167500", "104358.657500", "104400.147500", "104401.637500", "104403.127500", "104404.617500", "104406.107500", "104407.597500", "104409.087500", "104410.577500", "104412.067500", "104413.557500", "104415.047500", "104416.537500", "104418.027500", "104419.517500", "104421.007500", "104422.497500", "104423.987500", "104425.477500", "104426.967500", "104428.457500", "104429.947500", "104431.437500", "104432.927500", "104434.417500", "104435.907500", "104437.397500", "104438.887500", "104440.377500", "104441.867500", "104443.357500", "104444.847500", "104446.337500", "104447.827500", "104449.317500", "104450.807500", "104452.297500", "104453.787500", "104455.277500", "104456.767500", "104458.257500", "104459.747500", "104501.237500", "104502.727500", "104504.217500", "104505.707500", "104507.197500", "104508.687500", "104510.177500", "104511.667500", "104513.157500", "104514.647500", "104516.137500", "104517.627500", "104519.117500", "104520.607500", "104522.097500", "104523.587500", "104525.077500", "104526.567500", "104528.057500", "104529.547500", "104531.037500", "104532.527500", "104534.017500", "104535.507500", "104536.997500", "104538.487500", "104539.977500", "104541.467500", "104542.957500", "104544.447500", "104545.937500", "104547.427500", "104548.917500", "104550.407500", "104551.897500", "104553.387500", "104554.877500", "104556.367500", "104557.857500", "104559.347500", "104600.837500", "104602.327500", "104603.817500", "104605.307500", "104606.797500", "104608.287500", "104609.777500", "104611.267500", "104612.757500"],
      "ContentTime": ["103518.273000", "103518.277000", "103518.280000", "103518.283000", "103518.285000", "103518.288000", "103518.291000", "103518.294000", "103518.297000", "103518.300000", "103518.303000", "103518.306000", "103518.309000", "103518.312000", "103518.315000", "103518.318000", "103518.321000", "103518.324000", "103518.327000", "103518.330000", "103518.337000", "103518.340000", "103518.343000", "103518.346000", "103538.248000", "103538.251000", "103538.254000", "103538.257000", "103538.260000", "103538.263000", "103538.266000", "103538.269000", "103538.272000", "103538.275000", "103538.277000", "103538.280000", "103538.283000", "103538.286000", "103538.289000", "103538.292000", "103538.295000", "103538.298000", "103538.300000", "103538.303000", "103558.240000", "103558.243000", "103558.246000", "103558.248000", "103558.252000", "103558.254000", "103558.257000", "103558.260000", "103558.263000", "103558.266000", "103558.269000", "103558.272000", "103558.275000", "103558.277000", "103558.280000", "103558.283000", "103558.286000", "103558.290000", "103558.293000", "103558.296000", "103618.240000", "103618.243000", "103618.252000", "103618.254000", "103618.257000", "103618.260000", "103618.263000", "103618.266000", "103618.269000", "103618.272000", "103618.275000", "103618.278000", "103618.280000", "103618.283000", "103618.286000", "103618.289000", "103618.292000", "103618.295000", "103618.298000", "103618.300000", "103618.303000", "103638.240000", "103638.243000", "103638.246000", "103638.249000", "103638.252000", "103638.255000", "103638.258000", "103638.261000", "103638.264000", "103638.267000", "103638.270000", "103638.272000", "103638.275000", "103638.283000", "103638.286000", "103638.289000", "103638.292000", "103638.295000", "103638.297000", "103638.300000", "103718.240000", "103718.243000", "103718.246000", "103718.249000", "103718.252000", "103718.255000", "103718.257000", "103718.260000", "103718.263000", "103718.266000", "103718.269000", "103718.272000", "103718.275000", "103718.278000", "103718.281000", "103718.284000", "103718.286000", "103718.289000", "103718.292000", "103718.295000", "103718.298000", "103718.301000", "103718.304000", "103718.307000", "103718.310000", "103718.313000", "103718.316000", "103758.240000", "103758.243000", "103758.246000", "103758.249000", "103758.252000", "103758.254000", "103758.257000", "103758.260000", "103758.263000", "103758.266000", "103758.269000", "103758.272000", "103758.275000", "103758.278000", "103758.281000", "103758.283000", "103758.286000", "103758.289000", "103758.292000", "103758.295000", "103758.298000", "103758.301000", "103758.304000", "103758.306000", "103758.309000", "103758.312000", "103758.315000", "103838.240000", "103838.243000", "103838.246000", "103838.249000", "103838.252000", "103838.255000", "103838.257000", "103838.260000", "103838.263000", "103838.266000", "103838.269000", "103838.272000", "103838.275000", "103838.278000", "103838.281000", "103838.283000", "103838.286000", "103838.289000", "103838.292000", "103838.295000", "103838.298000", "103838.301000", "103838.303000", "103838.306000", "103838.309000", "103838.312000", "103838.315000", "103918.240000", "103918.243000", "103918.246000", "103918.249000", "103918.252000", "103918.254000", "103918.257000", "103918.260000", "103918.263000", "103918.280000", "103918.283000", "103918.286000", "103918.289000", "103918.292000", "103918.294000", "103918.297000", "103918.300000", "103918.303000", "103918.306000", "103918.309000", "103918.312000", "103918.315000", "103918.318000", "103918.321000", "103918.324000", "103918.326000", "103918.329000", "103958.240000", "103958.243000", "103958.246000", "103958.249000", "103958.252000", "103958.255000", "103958.258000", "103958.261000", "103958.264000", "103958.266000", "103958.269000", "103958.272000", "103958.275000", "103958.278000", "103958.281000", "103958.284000", "103958.287000", "103958.289000", "103958.292000", "103958.295000", "103958.298000", "103958.301000", "103958.304000", "103958.307000", "103958.310000", "103958.313000", "103958.315000", "104038.240000", "104038.243000", "104038.246000", "104038.249000", "104038.252000", "104038.254000", "104038.257000", "104038.260000", "104038.263000", "104038.266000", "104038.269000", "104038.272000", "104038.275000", "104038.278000", "104038.280000", "104038.283000", "104038.286000", "104038.289000", "104038.292000", "104038.295000", "104038.298000", "104038.301000", "104038.304000", "104038.307000", "104038.310000", "104038.312000", "104118.240000", "104118.243000", "104118.246000", "104118.249000", "104118.252000", "104118.255000", "104118.257000", "104118.260000", "104118.263000", "104118.266000", "104118.269000", "104118.272000", "104118.275000", "104118.277000", "104118.280000", "104118.283000", "104118.286000", "104118.289000", "104118.292000", "104118.295000", "104118.298000", "104118.301000", "104118.304000", "104118.306000", "104118.309000", "104118.312000", "104118.315000", "104158.240000", "104158.243000", "104158.246000", "104158.249000", "104158.252000", "104158.254000", "104158.257000", "104158.261000", "104158.264000", "104158.267000", "104158.269000", "104158.272000", "104158.275000", "104158.278000", "104158.281000", "104158.284000", "104158.287000", "104158.289000", "104158.292000", "104158.295000", "104158.298000", "104158.301000", "104158.304000", "104158.307000", "104158.310000", "104158.312000", "104158.315000", "104218.240000", "104218.243000", "104218.246000", "104218.249000", "104218.259000", "104218.262000", "104218.265000", "104218.268000", "104218.271000", "104218.273000", "104218.276000", "104218.279000", "104218.282000", "104218.285000", "104258.240000", "104258.243000", "104258.246000", "104258.249000", "104258.252000", "104258.254000", "104258.257000", "104258.260000", "104258.263000", "104258.266000", "104258.269000", "104258.272000", "104258.275000", "104258.278000", "104258.281000", "104258.283000", "104258.286000", "104258.289000", "104258.293000", "104258.296000", "104258.299000", "104258.302000", "104258.305000", "104258.308000", "104258.311000", "104258.313000", "104338.240000", "104338.243000", "104338.246000", "104338.249000", "104338.252000", "104338.255000", "104338.258000", "104338.261000", "104338.263000", "104338.266000", "104338.269000", "104338.272000", "104338.275000", "104338.278000", "104338.281000", "104338.284000", "104338.287000", "104338.289000", "104338.305000", "104338.308000", "104338.311000", "104338.314000", "104338.317000", "104338.319000", "104338.322000", "104338.325000", "104338.328000", "104418.240000", "104418.243000", "104418.246000", "104418.249000", "104418.252000", "104418.255000", "104418.258000", "104418.260000", "104418.263000", "104418.266000", "104418.269000", "104418.272000", "104418.275000", "104418.278000", "104418.287000", "104418.289000", "104418.292000", "104418.295000", "104418.298000", "104418.301000", "104418.304000", "104418.307000", "104418.310000", "104418.313000", "104418.315000", "104418.319000", "104418.322000", "104458.240000", "104458.243000", "104458.246000", "104458.249000", "104458.252000", "104458.255000", "104458.257000", "104458.260000", "104458.263000", "104458.266000", "104458.269000", "104458.272000", "104458.275000", "104458.278000", "104458.280000", "104458.283000", "104458.286000", "104458.289000", "104458.292000", "104458.295000", "104458.298000", "104458.301000", "104458.303000", "104458.306000", "104458.309000", "104458.312000", "104458.315000", "104538.240000", "104538.243000", "104538.246000", "104538.249000", "104538.252000", "104538.255000", "104538.258000", "104538.261000", "104538.264000", "104538.267000", "104538.269000", "104538.273000", "104538.275000", "104538.278000", "104538.281000", "104538.284000", "104538.287000", "104538.290000", "104538.293000", "104538.296000", "104538.298000", "104538.301000", "104538.304000", "104538.307000", "104538.310000", "104538.313000", "104538.316000", "104616.530000", "104616.533000", "104616.536000", "104616.539000", "104616.542000", "104616.545000", "104616.548000", "104616.551000", "104616.554000", "104616.557000", "104616.560000", "104616.563000", "104616.566000", "104616.569000", "104616.572000", "104616.575000", "104616.578000", "104616.581000", "104616.584000", "104616.587000", "104616.590000", "104616.593000", "104616.596000", "104616.599000", "104616.602000"],
