{
  "AcquisitionMatrixPE": 104,
  "AcquisitionNumber": 1,
  "AcquisitionTime": "09:32:42.727500",
  "BandwidthPerPixelPhaseEncode": 17.17,
  "BaseResolution": 104,
  "BodyPartExamined": "BRAIN",
  "CoilString": "HC1-7;NC1_2",
  "ConsistencyInfo": "N4_VE11C_LATEST_20160120",
  "ConversionSoftware": "dcm2niix",
  "ConversionSoftwareVersion": "v1.0.20190902",
  "DerivedVendorReportedEchoSpacing": 0.000560011,
  "DeviceSerialNumber": "167006",
  "DwellTime": 2.1e-06,
  "EchoTime": 0.037,
  "EchoTrainLength": 104,
  "EffectiveEchoSpacing": 0.000560011,
  "FlipAngle": 52,
  "ImageComments": "Unaliased_MB4_PE3_LB",
  "ImageOrientationPatientDICOM": [0.998679, 0.023602, -0.0456512, -0.0324317, 0.978521, -0.203581],
  "ImageType": [
    "ORIGINAL",
    "PRIMARY",
    "M",
    "MB",
    "ND",
    "MOSAIC"
],
  "ImagingFrequency": 123.259,
  "InPlanePhaseEncodingDirectionDICOM": "COL",
  "InstitutionAddress": "Chemin_Queen-Mary_4565_Montreal_District_CA_H3W_1W5",
  "InstitutionName": "IUGM",
  "InstitutionalDepartmentName": "Department",
  "MRAcquisitionType": "2D",
  "MagneticFieldStrength": 3,
  "Manufacturer": "Siemens",
  "ManufacturersModelName": "Prisma_fit",
  "Modality": "MR",
  "MultibandAccelerationFactor": 4,
  "PartialFourier": 1,
  "PatientPosition": "HFS",
  "PercentPhaseFOV": 100,
  "PhaseEncodingDirection": "j",
  "PhaseEncodingSteps": 104,
  "PhaseResolution": 1,
  "PixelBandwidth": 2290,
  "ProcedureStepDescription": "games_shinobi",
  "ProtocolName": "func_task-shinobi_run-2",
  "PulseSequenceDetails": "%CustomerSeq%_cmrr_mbep2d_bold",
  "ReceiveCoilActiveElements": "HC1-7;NC1,2",
  "ReceiveCoilName": "HeadNeck_64",
  "ReconMatrixPE": 104,
  "RepetitionTime": 1.49,
  "SAR": 0.0293426,
  "ScanOptions": "FS",
  "ScanningSequence": "EP",
  "SequenceName": "epfid2d1_104",
  "SequenceVariant": "SK_SS",
  "SeriesDescription": "func_task-shinobi_run-2",
  "SeriesNumber": 11,
  "ShimSetting": [602, -7254, -8852, 585, -52, -324, 19, 48],
  "SliceThickness": 2,
  "SliceTiming": [0, 0.7825, 0.0975, 0.88, 0.195, 0.98, 0.2925, 1.0775, 0.39, 1.175, 0.49, 1.2725, 0.5875, 1.37, 0.685, 0, 0.7825, 0.0975, 0.88, 0.195, 0.98, 0.2925, 1.0775, 0.39, 1.175, 0.49, 1.2725, 0.5875, 1.37, 0.685, 0, 0.7825, 0.0975, 0.88, 0.195, 0.98, 0.2925, 1.0775, 0.39, 1.175, 0.49, 1.2725, 0.5875, 1.37, 0.685, 0, 0.7825, 0.0975, 0.88, 0.195, 0.98, 0.2925, 1.0775, 0.39, 1.175, 0.49, 1.2725, 0.5875, 1.37, 0.685],
  "SoftwareVersions": "syngo_MR_E11",
  "SpacingBetweenSlices": 2,
  "StationName": "MRC35049",
  "TaskName": "shinobi",
  "TotalReadoutTime": 0.0576811,
  "TxRefAmp": 217.839,
  "WipMemBlock": "df594602-452a-4c9a-ae86-59111e30f961||Sequence: R016 ve11c/master r/e634e98; Dec 19 2017 11:00:25 by eja",
  "dcmmeta_affine": [
    [-1.9973571300506592, -0.06486330181360245, -0.07973138988018036, 108.43798828125],
    [-0.04720402881503105, 1.9570413827896118, -0.40958595275878906, -71.12226867675781],
    [-0.09130236506462097, 0.4071628749370575, 1.9559862613677979, -51.04591369628906],
    [0.0, 0.0, 0.0, 1.0]
],
  "dcmmeta_reorient_transform": [
    [0.0, -1.0, 0.0, 103.0],
    [1.0, 0.0, 0.0, 0.0],
    [0.0, 0.0, 1.0, 0.0],
    [0.0, 0.0, 0.0, 1.0]
],
  "dcmmeta_shape": [104, 104, 60, 478],
  "dcmmeta_slice_dim": 2,
  "dcmmeta_version": 0.6,
  "global": {
    "const": {
      "AcquisitionMatrix": [104, 0, 0, 104],
      "AngioFlag": "N",
      "BitsAllocated": 16,
      "BitsStored": 16,
      "BodyPartExamined": "BRAIN",
      "Columns": 832,
      "EchoNumbers": 1,
      "EchoTime": 37.0,
      "EchoTrainLength": 104,
      "FlipAngle": 52.0,
      "HighBit": 15,
      "ImageOrientationPatient": [0.99867858410844, 0.02360201478821, -0.0456511833483, -0.0324316497655, 0.97852071234022, -0.2035814422158],
      "ImagePositionPatient": [-805.18483414085, -859.99834011099, 172.33321652746],
      "ImageType": [
        "ORIGINAL",
        "PRIMARY",
        "M",
        "MB",
        "ND",
        "MOSAIC"
],
      "ImagedNucleus": "1H",
      "ImagingFrequency": 123.259023,
      "InPlanePhaseEncodingDirection": "COL",
      "MRAcquisitionType": "2D",
      "MagneticFieldStrength": 3.0,
      "Manufacturer": "SIEMENS",
      "ManufacturerModelName": "Prisma_fit",
      "Modality": "MR",
      "NumberOfAverages": 1.0,
      "NumberOfPhaseEncodingSteps": 104,
      "PercentPhaseFieldOfView": 100.0,
      "PercentSampling": 100.0,
      "PerformedProcedureStepStartTime": "091605.080000",
      "PhotometricInterpretation": "MONOCHROME2",
      "PixelBandwidth": 2290.0,
      "PixelRepresentation": 0,
      "PixelSpacing": [2.0, 2.0],
      "ProtocolName": "func_task-shinobi_run-2",
      "RepetitionTime": 1490.0,
      "Rows": 832,
      "SAR": 0.02934258413409,
      "SamplesPerPixel": 1,
      "ScanOptions": "FS",
      "ScanningSequence": "EP",
      "SequenceName": "epfid2d1_104",
      "SequenceVariant": [
        "SK",
        "SS"
],
      "SeriesDescription": "func_task-shinobi_run-2",
      "SeriesNumber": 11,
      "SeriesTime": "093358.010000",
      "SliceLocation": -39.680165837507,
      "SliceThickness": 2.0,
      "SmallestImagePixelValue": 0,
      "SoftwareVersions": "syngo MR E11",
      "SpacingBetweenSlices": 2.0000000176593,
      "SpecificCharacterSet": "ISO_IR 100",
      "StudyID": "2",
      "StudyTime": "091605.021000",
      "TransmitCoilName": "Body",
      "VariableFlipAngleFlag": "N",
      "WindowCenterWidthExplanation": "Algo1",
      "dBdt": 0.0},
    "slices": {}
  },
  "time": {
    "samples": {
      "AcquisitionNumber": [1, 2, 3, 4, 5, 6, 7, 8, 9, 10, 11, 12, 13, 14, 15, 16, 17, 18, 19, 20, 21, 22, 23, 24, 25, 26, 27, 28, 29, 30, 31, 32, 33, 34, 35, 36, 37, 38, 39, 40, 41, 42, 43, 44, 45, 46, 47, 48, 49, 50, 51, 52, 53, 54, 55, 56, 57, 58, 59, 60, 61, 62, 63, 64, 65, 66, 67, 68, 69, 70, 71, 72, 73, 74, 75, 76, 77, 78, 79, 80, 81, 82, 83, 84, 85, 86, 87, 88, 89, 90, 91, 92, 93, 94, 95, 96, 97, 98, 99, 100, 101, 102, 103, 104, 105, 106, 107, 108, 109, 110, 111, 112, 113, 114, 115, 116, 117, 118, 119, 120, 121, 122, 123, 124, 125, 126, 127, 128, 129, 130, 131, 132, 133, 134, 135, 136, 137, 138, 139, 140, 141, 142, 143, 144, 145, 146, 147, 148, 149, 150, 151, 152, 153, 154, 155, 156, 157, 158, 159, 160, 161, 162, 163, 164, 165, 166, 167, 168, 169, 170, 171, 172, 173, 174, 175, 176, 177, 178, 179, 180, 181, 182, 183, 184, 185, 186, 187, 188, 189, 190, 191, 192, 193, 194, 195, 196, 197, 198, 199, 200, 201, 202, 203, 204, 205, 206, 207, 208, 209, 210, 211, 212, 213, 214, 215, 216, 217, 218, 219, 220, 221, 222, 223, 224, 225, 226, 227, 228, 229, 230, 231, 232, 233, 234, 235, 236, 237, 238, 239, 240, 241, 242, 243, 244, 245, 246, 247, 248, 249, 250, 251, 252, 253, 254, 255, 256, 257, 258, 259, 260, 261, 262, 263, 264, 265, 266, 267, 268, 269, 270, 271, 272, 273, 274, 275, 276, 277, 278, 279, 280, 281, 282, 283, 284, 285, 286, 287, 288, 289, 290, 291, 292, 293, 294, 295, 296, 297, 298, 299, 300, 301, 302, 303, 304, 305, 306, 307, 308, 309, 310, 311, 312, 313, 314, 315, 316, 317, 318, 319, 320, 321, 322, 323, 324, 325, 326, 327, 328, 329, 330, 331, 332, 333, 334, 335, 336, 337, 338, 339, 340, 341, 342, 343, 344, 345, 346, 347, 348, 349, 350, 351, 352, 353, 354, 355, 356, 357, 358, 359, 360, 361, 362, 363, 364, 365, 366, 367, 368, 369, 370, 371, 372, 373, 374, 375, 376, 377, 378, 379, 380, 381, 382, 383, 384, 385, 386, 387, 388, 389, 390, 391, 392, 393, 394, 395, 396, 397, 398, 399, 400, 401, 402, 403, 404, 405, 406, 407, 408, 409, 410, 411, 412, 413, 414, 415, 416, 417, 418, 419, 420, 421, 422, 423, 424, 425, 426, 427, 428, 429, 430, 431, 432, 433, 434, 435, 436, 437, 438, 439, 440, 441, 442, 443, 444, 445, 446, 447, 448, 449, 450, 451, 452, 453, 454, 455, 456, 457, 458, 459, 460, 461, 462, 463, 464, 465, 466, 467, 468, 469, 470, 471, 472, 473, 474, 475, 476, 477, 478],
      "AcquisitionTime": ["093242.727500", "093244.217500", "093245.707500", "093247.197500", "093248.687500", "093250.177500", "093251.667500", "093253.157500", "093254.647500", "093256.137500", "093257.627500", "093259.117500", "093300.607500", "093302.097500", "093303.587500", "093305.077500", "093306.567500", "093308.057500", "093309.547500", "093311.037500", "093312.527500", "093314.017500", "093315.507500", "093316.997500", "093318.487500", "093319.977500", "093321.467500", "093322.957500", "093324.447500", "093325.937500", "093327.427500", "093328.917500", "093330.407500", "093331.897500", "093333.387500", "093334.877500", "093336.367500", "093337.857500", "093339.347500", "093340.837500", "093342.327500", "093343.817500", "093345.307500", "093346.797500", "093348.287500", "093349.777500", "093351.267500", "093352.757500", "093354.247500", "093355.737500", "093357.227500", "093358.717500", "093400.207500", "093401.697500", "093403.187500", "093404.677500", "093406.167500", "093407.657500", "093409.147500", "093410.637500", "093412.127500", "093413.617500", "093415.107500", "093416.597500", "093418.087500", "093419.577500", "093421.067500", "093422.557500", "093424.047500", "093425.537500", "093427.027500", "093428.517500", "093430.007500", "093431.497500", "093432.987500", "093434.477500", "093435.967500", "093437.457500", "093438.947500", "093440.437500", "093441.927500", "093443.417500", "093444.907500", "093446.397500", "093447.887500", "093449.377500", "093450.867500", "093452.357500", "093453.847500", "093455.337500", "093456.827500", "093458.317500", "093459.807500", "093501.297500", "093502.787500", "093504.277500", "093505.767500", "093507.257500", "093508.747500", "093510.237500", "093511.727500", "093513.217500", "093514.707500", "093516.197500", "093517.687500", "093519.177500", "093520.667500", "093522.157500", "093523.647500", "093525.137500", "093526.627500", "093528.117500", "093529.607500", "093531.097500", "093532.587500", "093534.077500", "093535.567500", "093537.057500", "093538.547500", "093540.037500", "093541.527500", "093543.017500", "093544.507500", "093545.997500", "093547.487500", "093548.977500", "093550.467500", "093551.957500", "093553.447500", "093554.937500", "093556.427500", "093557.917500", "093559.407500", "093600.897500", "093602.387500", "093603.877500", "093605.367500", "093606.857500", "093608.347500", "093609.837500", "093611.327500", "093612.817500", "093614.307500", "093615.797500", "093617.287500", "093618.777500", "093620.267500", "093621.757500", "093623.247500", "093624.737500", "093626.227500", "093627.717500", "093629.207500", "093630.697500", "093632.187500", "093633.677500", "093635.167500", "093636.657500", "093638.147500", "093639.637500", "093641.127500", "093642.617500", "093644.107500", "093645.597500", "093647.087500", "093648.577500", "093650.067500", "093651.557500", "093653.047500", "093654.537500", "093656.027500", "093657.517500", "093659.007500", "093700.497500", "093701.987500", "093703.477500", "093704.967500", "093706.457500", "093707.947500", "093709.437500", "093710.927500", "093712.417500", "093713.907500", "093715.397500", "093716.887500", "093718.377500", "093719.867500", "093721.357500", "093722.847500", "093724.337500", "093725.827500", "093727.317500", "093728.807500", "093730.297500", "093731.787500", "093733.277500", "093734.767500", "093736.257500", "093737.747500", "093739.237500", "093740.727500", "093742.217500", "093743.707500", "093745.197500", "093746.687500", "093748.177500", "093749.667500", "093751.157500", "093752.647500", "093754.137500", "093755.627500", "093757.117500", "093758.607500", "093800.097500", "093801.587500", "093803.077500", "093804.567500", "093806.057500", "093807.547500", "093809.037500", "093810.527500", "093812.017500", "093813.507500", "093814.997500", "093816.487500", "093817.977500", "093819.467500", "093820.957500", "093822.447500", "093823.937500", "093825.427500", "093826.917500", "093828.407500", "093829.897500", "093831.387500", "093832.877500", "093834.367500", "093835.857500", "093837.347500", "093838.837500", "093840.327500", "093841.817500", "093843.307500", "093844.797500", "093846.287500", "093847.777500", "093849.267500", "093850.757500", "093852.247500", "093853.737500", "093855.227500", "093856.717500", "093858.207500", "093859.697500", "093901.187500", "093902.677500", "093904.167500", "093905.657500", "093907.147500", "093908.637500", "093910.127500", "093911.617500", "093913.107500", "093914.597500", "093916.087500", "093917.577500", "093919.067500", "093920.557500", "093922.047500", "093923.537500", "093925.027500", "093926.517500", "093928.007500", "093929.497500", "093930.987500", "093932.477500", "093933.967500", "093935.457500", "093936.947500", "093938.437500", "093939.927500", "093941.417500", "093942.907500", "093944.397500", "093945.887500", "093947.377500", "093948.867500", "093950.357500", "093951.847500", "093953.337500", "093954.827500", "093956.317500", "093957.807500", "093959.297500", "094000.787500", "094002.277500", "094003.767500", "094005.257500", "094006.747500", "094008.237500", "094009.727500", "094011.217500", "094012.707500", "094014.197500", "094015.687500", "094017.177500", "094018.667500", "094020.157500", "094021.647500", "094023.137500", "094024.627500", "094026.117500", "094027.607500", "094029.097500", "094030.587500", "094032.077500", "094033.567500", "094035.057500", "094036.547500", "094038.037500", "094039.527500", "094041.017500", "094042.507500", "094043.997500", "094045.487500", "094046.977500", "094048.467500", "094049.957500", "094051.447500", "094052.937500", "094054.427500", "094055.917500", "094057.407500", "094058.897500", "094100.387500", "094101.877500", "094103.367500", "094104.857500", "094106.347500", "094107.837500", "094109.327500", "094110.817500", "094112.307500", "094113.797500", "094115.287500", "094116.777500", "094118.267500", "094119.757500", "094121.247500", "094122.737500", "094124.227500", "094125.717500", "094127.207500", "094128.697500", "094130.187500", "094131.677500", "094133.167500", "094134.657500", "094136.147500", "094137.637500", "094139.127500", "094140.617500", "094142.107500", "094143.597500", "094145.087500", "094146.577500", "094148.067500", "094149.557500", "094151.047500", "094152.537500", "094154.027500", "094155.517500", "094157.007500", "094158.497500", "094159.987500", "094201.477500", "094202.967500", "094204.457500", "094205.947500", "094207.437500", "094208.927500", "094210.417500", "094211.907500", "094213.397500", "094214.887500", "094216.377500", "094217.867500", "094219.357500", "094220.847500", "094222.337500", "094223.827500", "094225.317500", "094226.807500", "094228.297500", "094229.787500", "094231.277500", "094232.767500", "094234.257500", "094235.747500", "094237.237500", "094238.727500", "094240.217500", "094241.707500", "094243.197500", "094244.687500", "094246.177500", "094247.667500", "094249.157500", "094250.647500", "094252.137500", "094253.627500", "094255.117500", "094256.607500", "094258.097500", "094259.587500", "094301.077500", "094302.567500", "094304.057500", "094305.547500", "094307.037500", "094308.527500", "094310.017500", "094311.507500", "094312.997500", "094314.487500", "094315.977500", "094317.467500", "094318.957500", "094320.447500", "094321.937500", "094323.427500", "094324.917500", "094326.407500", "094327.897500", "094329.387500", "094330.877500", "094332.367500", "094333.857500", "094335.347500", "094336.837500", "094338.327500", "094339.817500", "094341.307500", "094342.797500", "094344.287500", "094345.777500", "094347.267500", "094348.757500", "094350.247500", "094351.737500", "094353.227500", "094354.717500", "094356.207500", "094357.697500", "094359.187500", "094400.677500", "094402.167500", "094403.657500", "094405.147500", "094406.637500", "094408.127500", "094409.617500", "094411.107500", "094412.597500", "094414.087500", "094415.577500", "094417.067500", "094418.557500", "094420.047500", "094421.537500", "094423.027500", "094424.517500", "094426.007500", "094427.497500", "094428.987500", "094430.477500", "094431.967500", "094433.457500"],
      "ContentTime": ["093358.013000", "093358.016000", "093358.019000", "093358.022000", "093358.025000", "093358.029000", "093358.035000", "093358.038000", "093358.040000", "093358.043000", "093358.046000", "093358.049000", "093358.052000", "093358.055000", "093358.058000", "093358.064000", "093358.067000", "093358.070000", "093358.073000", "093358.076000", "093358.079000", "093358.082000", "093417.974000", "093417.977000", "093417.980000", "093417.983000", "093417.986000", "093417.988000", "093417.991000", "093417.994000", "093417.997000", "093418.001000", "093418.004000", "093418.007000", "093418.009000", "093418.012000", "093418.015000", "093418.018000", "093418.021000", "093418.024000", "093418.027000", "093418.029000", "093437.974000", "093437.978000", "093437.981000", "093437.984000", "093437.986000", "093437.989000", "093437.993000", "093437.996000", "093438.001000", "093438.003000", "093438.007000", "093438.010000", "093438.014000", "093438.017000", "093438.020000", "093438.023000", "093438.026000", "093438.029000", "093438.034000", "093438.037000", "093457.974000", "093457.977000", "093457.980000", "093457.982000", "093457.986000", "093457.989000", "093457.992000", "093457.994000", "093457.997000", "093458.001000", "093458.004000", "093458.007000", "093458.010000", "093458.013000", "093458.016000", "093458.021000", "093458.024000", "093458.027000", "093458.030000", "093458.033000", "093458.036000", "093517.974000", "093517.977000", "093517.980000", "093517.983000", "093517.985000", "093517.988000", "093517.991000", "093517.994000", "093517.997000", "093518.001000", "093518.004000", "093518.006000", "093518.009000", "093518.012000", "093518.015000", "093518.018000", "093518.021000", "093518.023000", "093518.026000", "093518.029000", "093537.974000", "093537.977000", "093537.980000", "093537.983000", "093537.986000", "093537.988000", "093537.991000", "093537.994000", "093537.997000", "093538.001000", "093538.004000", "093538.007000", "093538.009000", "093538.012000", "093617.974000", "093617.977000", "093617.980000", "093617.983000", "093617.986000", "093617.988000", "093617.991000", "093617.994000", "093617.997000", "093618.000000", "093618.003000", "093618.006000", "093618.008000", "093618.011000", "093618.014000", "093618.017000", "093618.020000", "093618.023000", "093618.026000", "093618.029000", "093618.031000", "093618.034000", "093618.037000", "093618.040000", "093618.043000", "093618.046000", "093618.048000", "093657.974000", "093657.977000", "093657.980000", "093657.983000", "093657.986000", "093657.988000", "093657.991000", "093657.994000", "093657.997000", "093658.001000", "093658.004000", "093658.007000", "093658.010000", "093658.012000", "093658.015000", "093658.018000", "093658.021000", "093658.024000", "093658.027000", "093658.030000", "093658.033000", "093658.035000", "093658.038000", "093658.041000", "093658.044000", "093658.047000", "093658.050000", "093737.974000", "093737.978000", "093737.982000", "093737.985000", "093737.989000", "093737.992000", "093737.995000", "093737.998000", "093738.002000", "093738.005000", "093738.008000", "093738.011000", "093738.013000", "093738.016000", "093738.019000", "093738.022000", "093738.025000", "093738.028000", "093738.031000", "093738.034000", "093738.036000", "093738.039000", "093738.042000", "093738.045000", "093738.048000", "093738.051000", "093817.974000", "093817.977000", "093817.980000", "093817.983000", "093817.986000", "093817.988000", "093817.991000", "093818.001000", "093818.004000", "093818.007000", "093818.009000", "093818.012000", "093818.015000", "093818.018000", "093818.021000", "093818.024000", "093818.043000", "093818.045000", "093818.048000", "093818.058000", "093818.061000", "093818.064000", "093818.066000", "093818.069000", "093818.072000", "093818.075000", "093818.078000", "093857.974000", "093857.977000", "093857.980000", "093857.983000", "093857.986000", "093857.989000", "093857.992000", "093857.994000", "093857.997000", "093858.001000", "093858.004000", "093858.007000", "093858.010000", "093858.013000", "093858.016000", "093858.018000", "093858.021000", "093858.024000", "093858.027000", "093858.030000", "093858.033000", "093858.036000", "093858.039000", "093858.041000", "093858.044000", "093858.047000", "093858.050000", "093937.974000", "093937.977000", "093937.980000", "093937.983000", "093937.986000", "093937.989000", "093937.992000", "093937.994000", "093937.997000", "093938.001000", "093938.004000", "093938.007000", "093938.010000", "093938.013000", "093938.015000", "093938.018000", "093938.021000", "093938.024000", "093938.027000", "093938.030000", "093938.033000", "093938.036000", "093938.038000", "093938.041000", "093938.044000", "093938.047000", "093938.050000", "094017.974000", "094017.977000", "094017.980000", "094017.983000", "094017.986000", "094017.988000", "094017.991000", "094017.994000", "094017.997000", "094018.001000", "094018.004000", "094018.007000", "094018.010000", "094018.012000", "094018.015000", "094018.018000", "094018.021000", "094018.024000", "094018.027000", "094018.030000", "094018.033000", "094018.036000", "094018.038000", "094018.041000", "094018.044000", "094018.047000", "094018.050000", "094057.974000", "094057.977000", "094057.980000", "094057.983000", "094057.986000", "094057.989000", "094057.992000", "094058.003000", "094058.006000", "094058.009000", "094058.012000", "094058.015000", "094058.018000", "094058.020000", "094058.023000", "094058.026000", "094058.029000", "094058.032000", "094058.035000", "094058.038000", "094058.041000", "094058.043000", "094058.046000", "094058.049000", "094058.052000", "094058.055000", "094058.058000", "094137.974000", "094137.977000", "094137.980000", "094137.983000", "094137.986000", "094137.989000", "094137.992000", "094137.995000", "094137.997000", "094138.001000", "094138.004000", "094138.007000", "094138.010000", "094138.013000", "094138.016000", "094138.018000", "094138.021000", "094138.024000", "094138.027000", "094138.030000", "094138.033000", "094138.036000", "094138.039000", "094138.041000", "094138.044000", "094138.047000", "094138.050000", "094217.974000", "094217.977000", "094217.980000", "094217.983000", "094217.986000", "094217.989000", "094217.991000", "094217.994000", "094217.997000", "094218.001000", "094218.004000", "094218.007000", "094218.010000", "094218.013000", "094218.015000", "094218.018000", "094218.021000", "094218.024000", "094218.027000", "094218.030000", "094218.033000", "094218.036000", "094218.039000", "094218.042000", "094218.045000", "094218.047000", "094257.974000", "094257.977000", "094257.980000", "094257.990000", "094257.993000", "094257.996000", "094258.000000", "094258.003000", "094258.005000", "094258.008000", "094258.011000", "094258.014000", "094258.017000", "094258.020000", "094258.023000", "094258.026000", "094258.029000", "094258.031000", "094258.034000", "094258.037000", "094258.040000", "094258.043000", "094258.046000", "094258.049000", "094258.052000", "094258.054000", "094258.057000", "094337.974000", "094337.977000", "094337.980000", "094337.983000", "094337.986000", "094337.989000", "094337.992000", "094337.995000", "094337.998000", "094338.002000", "094338.005000", "094338.008000", "094338.010000", "094338.013000", "094338.016000", "094338.019000", "094338.022000", "094338.025000", "094338.028000", "094338.031000", "094338.033000", "094338.036000", "094338.039000", "094338.042000", "094338.045000", "094338.048000", "094338.051000", "094417.974000", "094417.977000", "094417.980000", "094417.983000", "094417.986000", "094417.989000", "094417.992000", "094417.995000", "094417.997000", "094418.001000", "094418.004000", "094418.007000", "094418.010000", "094418.013000", "094418.016000", "094418.019000", "094418.022000", "094418.025000", "094418.027000", "094418.030000", "094418.033000", "094418.036000", "094418.039000", "094418.042000", "094418.045000", "094418.048000", "094418.050000", "094435.312000", "094435.316000", "094435.320000", "094435.324000", "094435.327000", "094435.330000", "094435.333000", "094435.336000", "094435.339000", "094435.342000", "094435.345000", "094435.348000"],
