{
  "AcquisitionMatrixPE": 104,
  "AcquisitionNumber": 1,
  "AcquisitionTime": "10:26:9.910000",
  "BandwidthPerPixelPhaseEncode": 17.17,
  "BaseResolution": 104,
  "BodyPartExamined": "BRAIN",
  "CoilString": "HC1-7;NC1_2",
  "ConsistencyInfo": "N4_VE11C_LATEST_20160120",
  "ConversionSoftware": "dcm2niix",
  "ConversionSoftwareVersion": "v1.0.20190902",
  "DerivedVendorReportedEchoSpacing": 0.000560011,
  "DeviceSerialNumber": "167006",
  "DwellTime": 2.1e-06,
  "EchoTime": 0.037,
  "EchoTrainLength": 104,
  "EffectiveEchoSpacing": 0.000560011,
  "FlipAngle": 52,
  "ImageComments": "Unaliased_MB4_PE3_LB",
  "ImageOrientationPatientDICOM": [0.998424, 0.00911297, -0.0553668, -0.020914, 0.976061, -0.216487],
  "ImageType": [
    "ORIGINAL",
    "PRIMARY",
    "M",
    "MB",
    "ND",
    "MOSAIC"
],
  "ImagingFrequency": 123.259,
  "InPlanePhaseEncodingDirectionDICOM": "COL",
  "InstitutionAddress": "Chemin_Queen-Mary_4565_Montreal_District_CA_H3W_1W5",
  "InstitutionName": "IUGM",
  "InstitutionalDepartmentName": "Department",
  "MRAcquisitionType": "2D",
  "MagneticFieldStrength": 3,
  "Manufacturer": "Siemens",
  "ManufacturersModelName": "Prisma_fit",
  "Modality": "MR",
  "MultibandAccelerationFactor": 4,
  "PartialFourier": 1,
  "PatientPosition": "HFS",
  "PercentPhaseFOV": 100,
  "PhaseEncodingDirection": "j",
  "PhaseEncodingSteps": 104,
  "PhaseResolution": 1,
  "PixelBandwidth": 2290,
  "ProcedureStepDescription": "games_shinobi",
  "ProtocolName": "func_task-shinobi_run-5",
  "PulseSequenceDetails": "%CustomerSeq%_cmrr_mbep2d_bold",
  "ReceiveCoilActiveElements": "HC1-7;NC1,2",
  "ReceiveCoilName": "HeadNeck_64",
  "ReconMatrixPE": 104,
  "RepetitionTime": 1.49,
  "SAR": 0.0311766,
  "ScanOptions": "FS",
  "ScanningSequence": "EP",
  "SequenceName": "epfid2d1_104",
  "SequenceVariant": "SK_SS",
  "SeriesDescription": "func_task-shinobi_run-5",
  "SeriesNumber": 24,
  "ShimSetting": [592, -7259, -8838, 601, -79, -288, 21, 60],
  "SliceThickness": 2,
  "SliceTiming": [0, 0.785, 0.0975, 0.8825, 0.1975, 0.98, 0.295, 1.0775, 0.3925, 1.1775, 0.49, 1.275, 0.5875, 1.3725, 0.6875, 0, 0.785, 0.0975, 0.8825, 0.1975, 0.98, 0.295, 1.0775, 0.3925, 1.1775, 0.49, 1.275, 0.5875, 1.3725, 0.6875, 0, 0.785, 0.0975, 0.8825, 0.1975, 0.98, 0.295, 1.0775, 0.3925, 1.1775, 0.49, 1.275, 0.5875, 1.3725, 0.6875, 0, 0.785, 0.0975, 0.8825, 0.1975, 0.98, 0.295, 1.0775, 0.3925, 1.1775, 0.49, 1.275, 0.5875, 1.3725, 0.6875],
  "SoftwareVersions": "syngo_MR_E11",
  "SpacingBetweenSlices": 2,
  "StationName": "MRC35049",
  "TaskName": "shinobi",
  "TotalReadoutTime": 0.0576811,
  "TxRefAmp": 221.198,
  "WipMemBlock": "ef9b0274-06b0-43ce-ae28-fee885f664ad||Sequence: R016 ve11c/master r/e634e98; Dec 19 2017 11:00:25 by eja",
  "dcmmeta_affine": [
    [-1.9968489408493042, -0.0418279729783535, -0.1041371300816536, 107.71646118164062],
    [-0.018225934356451035, 1.952122688293457, -0.4346086382865906, -71.98211669921875],
    [-0.11073362827301025, 0.4329749047756195, 1.9494283199310303, -48.35349655151367],
    [0.0, 0.0, 0.0, 1.0]
],
  "dcmmeta_reorient_transform": [
    [0.0, -1.0, 0.0, 103.0],
    [1.0, 0.0, 0.0, 0.0],
    [0.0, 0.0, 1.0, 0.0],
    [0.0, 0.0, 0.0, 1.0]
],
  "dcmmeta_shape": [104, 104, 60, 515],
  "dcmmeta_slice_dim": 2,
  "dcmmeta_version": 0.6,
  "global": {
    "const": {
      "AcquisitionMatrix": [104, 0, 0, 104],
      "AngioFlag": "N",
      "BitsAllocated": 16,
      "BitsStored": 16,
      "BodyPartExamined": "BRAIN",
      "Columns": 832,
      "EchoNumbers": 1,
      "EchoTime": 37.0,
      "EchoTrainLength": 104,
      "FlipAngle": 52.0,
      "HighBit": 15,
      "ImageOrientationPatient": [0.99842449381463, 0.00911296710432, -0.055366812998, -0.0209139856628, 0.97606136435191, -0.2164874551173],
      "ImagePositionPatient": [-815.03583300276, -846.29343694481, 194.15282477195],
      "ImageType": [
        "ORIGINAL",
        "PRIMARY",
        "M",
        "MB",
        "ND",
        "MOSAIC"
],
      "ImagedNucleus": "1H",
      "ImagingFrequency": 123.259017,
      "InPlanePhaseEncodingDirection": "COL",
      "MRAcquisitionType": "2D",
      "MagneticFieldStrength": 3.0,
      "Manufacturer": "SIEMENS",
      "ManufacturerModelName": "Prisma_fit",
      "Modality": "MR",
      "NumberOfAverages": 1.0,
      "NumberOfPhaseEncodingSteps": 104,
      "PercentPhaseFieldOfView": 100.0,
      "PercentSampling": 100.0,
      "PerformedProcedureStepStartTime": "091605.080000",
      "PhotometricInterpretation": "MONOCHROME2",
      "PixelBandwidth": 2290.0,
      "PixelRepresentation": 0,
      "PixelSpacing": [2.0, 2.0],
      "ProtocolName": "func_task-shinobi_run-5",
      "RepetitionTime": 1490.0,
      "Rows": 832,
      "SAR": 0.03117657025176,
      "SamplesPerPixel": 1,
      "ScanOptions": "FS",
      "ScanningSequence": "EP",
      "SequenceName": "epfid2d1_104",
      "SequenceVariant": [
        "SK",
        "SS"
],
      "SeriesDescription": "func_task-shinobi_run-5",
      "SeriesNumber": 24,
      "SeriesTime": "102710.276000",
      "SliceLocation": -37.097456086493,
      "SliceThickness": 2.0,
      "SmallestImagePixelValue": 0,
      "SoftwareVersions": "syngo MR E11",
      "SpacingBetweenSlices": 1.9999999740237,
      "SpecificCharacterSet": "ISO_IR 100",
      "StudyID": "2",
      "StudyTime": "091605.021000",
      "TransmitCoilName": "Body",
      "VariableFlipAngleFlag": "N",
      "WindowCenterWidthExplanation": "Algo1",
      "dBdt": 0.0},
    "slices": {}
  },
  "time": {
    "samples": {
      "AcquisitionNumber": [1, 2, 3, 4, 5, 6, 7, 8, 9, 10, 11, 12, 13, 14, 15, 16, 17, 18, 19, 20, 21, 22, 23, 24, 25, 26, 27, 28, 29, 30, 31, 32, 33, 34, 35, 36, 37, 38, 39, 40, 41, 42, 43, 44, 45, 46, 47, 48, 49, 50, 51, 52, 53, 54, 55, 56, 57, 58, 59, 60, 61, 62, 63, 64, 65, 66, 67, 68, 69, 70, 71, 72, 73, 74, 75, 76, 77, 78, 79, 80, 81, 82, 83, 84, 85, 86, 87, 88, 89, 90, 91, 92, 93, 94, 95, 96, 97, 98, 99, 100, 101, 102, 103, 104, 105, 106, 107, 108, 109, 110, 111, 112, 113, 114, 115, 116, 117, 118, 119, 120, 121, 122, 123, 124, 125, 126, 127, 128, 129, 130, 131, 132, 133, 134, 135, 136, 137, 138, 139, 140, 141, 142, 143, 144, 145, 146, 147, 148, 149, 150, 151, 152, 153, 154, 155, 156, 157, 158, 159, 160, 161, 162, 163, 164, 165, 166, 167, 168, 169, 170, 171, 172, 173, 174, 175, 176, 177, 178, 179, 180, 181, 182, 183, 184, 185, 186, 187, 188, 189, 190, 191, 192, 193, 194, 195, 196, 197, 198, 199, 200, 201, 202, 203, 204, 205, 206, 207, 208, 209, 210, 211, 212, 213, 214, 215, 216, 217, 218, 219, 220, 221, 222, 223, 224, 225, 226, 227, 228, 229, 230, 231, 232, 233, 234, 235, 236, 237, 238, 239, 240, 241, 242, 243, 244, 245, 246, 247, 248, 249, 250, 251, 252, 253, 254, 255, 256, 257, 258, 259, 260, 261, 262, 263, 264, 265, 266, 267, 268, 269, 270, 271, 272, 273, 274, 275, 276, 277, 278, 279, 280, 281, 282, 283, 284, 285, 286, 287, 288, 289, 290, 291, 292, 293, 294, 295, 296, 297, 298, 299, 300, 301, 302, 303, 304, 305, 306, 307, 308, 309, 310, 311, 312, 313, 314, 315, 316, 317, 318, 319, 320, 321, 322, 323, 324, 325, 326, 327, 328, 329, 330, 331, 332, 333, 334, 335, 336, 337, 338, 339, 340, 341, 342, 343, 344, 345, 346, 347, 348, 349, 350, 351, 352, 353, 354, 355, 356, 357, 358, 359, 360, 361, 362, 363, 364, 365, 366, 367, 368, 369, 370, 371, 372, 373, 374, 375, 376, 377, 378, 379, 380, 381, 382, 383, 384, 385, 386, 387, 388, 389, 390, 391, 392, 393, 394, 395, 396, 397, 398, 399, 400, 401, 402, 403, 404, 405, 406, 407, 408, 409, 410, 411, 412, 413, 414, 415, 416, 417, 418, 419, 420, 421, 422, 423, 424, 425, 426, 427, 428, 429, 430, 431, 432, 433, 434, 435, 436, 437, 438, 439, 440, 441, 442, 443, 444, 445, 446, 447, 448, 449, 450, 451, 452, 453, 454, 455, 456, 457, 458, 459, 460, 461, 462, 463, 464, 465, 466, 467, 468, 469, 470, 471, 472, 473, 474, 475, 476, 477, 478, 479, 480, 481, 482, 483, 484, 485, 486, 487, 488, 489, 490, 491, 492, 493, 494, 495, 496, 497, 498, 499, 500, 501, 502, 503, 504, 505, 506, 507, 508, 509, 510, 511, 512, 513, 514, 515],
      "AcquisitionTime": ["102609.910000", "102611.400000", "102612.890000", "102614.380000", "102615.870000", "102617.360000", "102618.850000", "102620.340000", "102621.830000", "102623.320000", "102624.810000", "102626.300000", "102627.790000", "102629.280000", "102630.770000", "102632.260000", "102633.750000", "102635.240000", "102636.730000", "102638.220000", "102639.710000", "102641.200000", "102642.690000", "102644.180000", "102645.670000", "102647.160000", "102648.650000", "102650.140000", "102651.630000", "102653.120000", "102654.610000", "102656.100000", "102657.590000", "102659.080000", "102700.570000", "102702.060000", "102703.550000", "102705.040000", "102706.530000", "102708.020000", "102709.510000", "102711.000000", "102712.490000", "102713.980000", "102715.470000", "102716.960000", "102718.450000", "102719.940000", "102721.430000", "102722.920000", "102724.410000", "102725.900000", "102727.390000", "102728.880000", "102730.370000", "102731.860000", "102733.350000", "102734.840000", "102736.330000", "102737.820000", "102739.310000", "102740.800000", "102742.290000", "102743.780000", "102745.270000", "102746.760000", "102748.250000", "102749.740000", "102751.230000", "102752.720000", "102754.210000", "102755.700000", "102757.190000", "102758.680000", "102800.170000", "102801.660000", "102803.150000", "102804.640000", "102806.130000", "102807.620000", "102809.110000", "102810.600000", "102812.090000", "102813.580000", "102815.070000", "102816.560000", "102818.050000", "102819.540000", "102821.030000", "102822.520000", "102824.010000", "102825.500000", "102826.990000", "102828.480000", "102829.970000", "102831.460000", "102832.950000", "102834.440000", "102835.930000", "102837.420000", "102838.910000", "102840.400000", "102841.890000", "102843.380000", "102844.870000", "102846.360000", "102847.850000", "102849.340000", "102850.830000", "102852.320000", "102853.810000", "102855.300000", "102856.790000", "102858.280000", "102859.770000", "102901.260000", "102902.750000", "102904.240000", "102905.730000", "102907.220000", "102908.710000", "102910.200000", "102911.690000", "102913.180000", "102914.670000", "102916.160000", "102917.650000", "102919.140000", "102920.630000", "102922.120000", "102923.610000", "102925.100000", "102926.590000", "102928.080000", "102929.570000", "102931.060000", "102932.550000", "102934.040000", "102935.530000", "102937.020000", "102938.510000", "102940.000000", "102941.490000", "102942.980000", "102944.470000", "102945.960000", "102947.450000", "102948.940000", "102950.430000", "102951.920000", "102953.410000", "102954.900000", "102956.390000", "102957.880000", "102959.370000", "103000.860000", "103002.350000", "103003.840000", "103005.330000", "103006.820000", "103008.310000", "103009.800000", "103011.290000", "103012.780000", "103014.270000", "103015.760000", "103017.250000", "103018.740000", "103020.230000", "103021.720000", "103023.210000", "103024.700000", "103026.190000", "103027.680000", "103029.170000", "103030.660000", "103032.150000", "103033.640000", "103035.130000", "103036.620000", "103038.110000", "103039.600000", "103041.090000", "103042.580000", "103044.070000", "103045.560000", "103047.050000", "103048.540000", "103050.030000", "103051.520000", "103053.010000", "103054.500000", "103055.990000", "103057.480000", "103058.970000", "103100.460000", "103101.950000", "103103.440000", "103104.930000", "103106.420000", "103107.910000", "103109.400000", "103110.890000", "103112.380000", "103113.870000", "103115.360000", "103116.850000", "103118.340000", "103119.830000", "103121.320000", "103122.810000", "103124.300000", "103125.790000", "103127.280000", "103128.770000", "103130.260000", "103131.750000", "103133.240000", "103134.730000", "103136.220000", "103137.710000", "103139.200000", "103140.690000", "103142.180000", "103143.670000", "103145.160000", "103146.650000", "103148.140000", "103149.630000", "103151.120000", "103152.610000", "103154.100000", "103155.590000", "103157.080000", "103158.570000", "103200.060000", "103201.550000", "103203.040000", "103204.530000", "103206.020000", "103207.510000", "103209.000000", "103210.490000", "103211.980000", "103213.470000", "103214.960000", "103216.450000", "103217.940000", "103219.430000", "103220.920000", "103222.410000", "103223.900000", "103225.390000", "103226.880000", "103228.370000", "103229.860000", "103231.350000", "103232.840000", "103234.330000", "103235.820000", "103237.310000", "103238.800000", "103240.290000", "103241.780000", "103243.270000", "103244.760000", "103246.250000", "103247.740000", "103249.230000", "103250.720000", "103252.210000", "103253.700000", "103255.190000", "103256.680000", "103258.170000", "103259.660000", "103301.150000", "103302.640000", "103304.130000", "103305.620000", "103307.110000", "103308.600000", "103310.090000", "103311.580000", "103313.070000", "103314.560000", "103316.050000", "103317.540000", "103319.030000", "103320.520000", "103322.010000", "103323.500000", "103324.990000", "103326.480000", "103327.970000", "103329.460000", "103330.950000", "103332.440000", "103333.930000", "103335.420000", "103336.910000", "103338.400000", "103339.890000", "103341.380000", "103342.870000", "103344.360000", "103345.850000", "103347.340000", "103348.830000", "103350.320000", "103351.810000", "103353.300000", "103354.790000", "103356.280000", "103357.770000", "103359.260000", "103400.750000", "103402.240000", "103403.730000", "103405.220000", "103406.710000", "103408.200000", "103409.690000", "103411.180000", "103412.670000", "103414.160000", "103415.650000", "103417.140000", "103418.630000", "103420.120000", "103421.610000", "103423.100000", "103424.590000", "103426.080000", "103427.570000", "103429.060000", "103430.550000", "103432.040000", "103433.530000", "103435.020000", "103436.510000", "103438.000000", "103439.490000", "103440.980000", "103442.470000", "103443.960000", "103445.450000", "103446.940000", "103448.430000", "103449.920000", "103451.410000", "103452.900000", "103454.390000", "103455.880000", "103457.370000", "103458.860000", "103500.350000", "103501.840000", "103503.330000", "103504.820000", "103506.310000", "103507.800000", "103509.290000", "103510.780000", "103512.270000", "103513.760000", "103515.250000", "103516.740000", "103518.230000", "103519.720000", "103521.210000", "103522.700000", "103524.190000", "103525.680000", "103527.170000", "103528.660000", "103530.150000", "103531.640000", "103533.130000", "103534.620000", "103536.110000", "103537.600000", "103539.090000", "103540.580000", "103542.070000", "103543.560000", "103545.050000", "103546.540000", "103548.030000", "103549.520000", "103551.010000", "103552.500000", "103553.990000", "103555.480000", "103556.970000", "103558.460000", "103559.950000", "103601.440000", "103602.930000", "103604.420000", "103605.910000", "103607.400000", "103608.890000", "103610.380000", "103611.870000", "103613.360000", "103614.850000", "103616.340000", "103617.830000", "103619.320000", "103620.810000", "103622.300000", "103623.790000", "103625.280000", "103626.770000", "103628.260000", "103629.750000", "103631.240000", "103632.730000", "103634.220000", "103635.710000", "103637.200000", "103638.690000", "103640.180000", "103641.670000", "103643.160000", "103644.650000", "103646.140000", "103647.630000", "103649.120000", "103650.610000", "103652.100000", "103653.590000", "103655.080000", "103656.570000", "103658.060000", "103659.550000", "103701.040000", "103702.530000", "103704.020000", "103705.510000", "103707.000000", "103708.490000", "103709.980000", "103711.470000", "103712.960000", "103714.450000", "103715.940000", "103717.430000", "103718.920000", "103720.410000", "103721.900000", "103723.390000", "103724.880000", "103726.370000", "103727.860000", "103729.350000", "103730.840000", "103732.330000", "103733.820000", "103735.310000", "103736.800000", "103738.290000", "103739.780000", "103741.270000", "103742.760000", "103744.250000", "103745.740000", "103747.230000", "103748.720000", "103750.210000", "103751.700000", "103753.190000", "103754.680000", "103756.170000", "103757.660000", "103759.150000", "103800.640000", "103802.130000", "103803.620000", "103805.110000", "103806.600000", "103808.090000", "103809.580000", "103811.070000", "103812.560000", "103814.050000", "103815.540000", "103817.030000", "103818.520000", "103820.010000", "103821.500000", "103822.990000", "103824.480000", "103825.970000", "103827.460000", "103828.950000", "103830.440000", "103831.930000", "103833.420000", "103834.910000", "103836.400000", "103837.890000", "103839.380000", "103840.870000", "103842.360000", "103843.850000", "103845.340000", "103846.830000", "103848.320000", "103849.810000", "103851.300000", "103852.790000", "103854.280000", "103855.770000"],
      "ContentTime": ["102710.279000", "102710.282000", "102710.285000", "102710.287000", "102710.290000", "102730.232000", "102730.235000", "102730.238000", "102730.241000", "102730.243000", "102730.246000", "102730.249000", "102730.261000", "102730.263000", "102730.266000", "102730.269000", "102730.273000", "102730.276000", "102730.278000", "102730.282000", "102730.285000", "102730.289000", "102730.298000", "102730.301000", "102730.304000", "102750.232000", "102750.235000", "102750.238000", "102750.240000", "102750.243000", "102750.246000", "102750.252000", "102750.255000", "102750.258000", "102750.261000", "102750.264000", "102750.266000", "102750.269000", "102750.272000", "102750.275000", "102750.278000", "102750.281000", "102750.284000", "102750.287000", "102750.290000", "102750.293000", "102810.233000", "102810.236000", "102810.239000", "102810.242000", "102810.245000", "102810.247000", "102810.250000", "102810.253000", "102810.256000", "102810.259000", "102810.262000", "102810.265000", "102810.267000", "102810.270000", "102810.273000", "102810.276000", "102810.279000", "102810.282000", "102810.284000", "102810.296000", "102830.233000", "102830.236000", "102830.239000", "102830.242000", "102830.245000", "102830.247000", "102830.250000", "102830.253000", "102830.256000", "102830.259000", "102830.262000", "102830.265000", "102830.268000", "102830.270000", "102830.273000", "102830.276000", "102830.279000", "102830.285000", "102830.288000", "102830.291000", "102850.233000", "102850.236000", "102850.239000", "102850.242000", "102850.245000", "102850.247000", "102850.250000", "102850.253000", "102850.256000", "102850.259000", "102850.262000", "102850.265000", "102850.268000", "102850.270000", "102850.273000", "102850.276000", "102850.279000", "102850.282000", "102850.285000", "102850.288000", "102930.232000", "102930.235000", "102930.238000", "102930.241000", "102930.244000", "102930.247000", "102930.249000", "102930.252000", "102930.255000", "102930.258000", "102930.261000", "102930.264000", "102930.267000", "102930.270000", "102930.272000", "102930.275000", "102930.278000", "102930.281000", "102930.284000", "102930.287000", "102930.290000", "102930.292000", "102930.295000", "102930.298000", "102930.301000", "102930.304000", "102930.307000", "102930.310000", "103010.232000", "103010.235000", "103010.238000", "103010.241000", "103010.244000", "103010.247000", "103010.249000", "103010.253000", "103010.255000", "103010.258000", "103010.261000", "103010.264000", "103010.267000", "103010.270000", "103010.273000", "103010.276000", "103010.279000", "103010.281000", "103010.284000", "103010.287000", "103010.290000", "103010.293000", "103010.296000", "103010.299000", "103010.302000", "103010.305000", "103050.254000", "103050.257000", "103050.260000", "103050.263000", "103050.266000", "103050.269000", "103050.272000", "103050.275000", "103050.278000", "103050.281000", "103050.283000", "103050.286000", "103050.289000", "103050.292000", "103050.295000", "103050.298000", "103050.301000", "103050.304000", "103050.307000", "103050.309000", "103050.312000", "103050.315000", "103050.318000", "103050.321000", "103050.324000", "103050.327000", "103050.329000", "103130.232000", "103130.235000", "103130.238000", "103130.241000", "103130.244000", "103130.246000", "103130.249000", "103130.252000", "103130.255000", "103130.258000", "103130.261000", "103130.264000", "103130.266000", "103130.269000", "103130.272000", "103130.275000", "103130.278000", "103130.281000", "103130.284000", "103130.287000", "103130.290000", "103130.293000", "103130.296000", "103130.298000", "103130.301000", "103130.304000", "103130.307000", "103210.232000", "103210.235000", "103210.238000", "103210.241000", "103210.243000", "103210.247000", "103210.249000", "103210.252000", "103210.255000", "103210.258000", "103210.261000", "103210.264000", "103210.267000", "103210.270000", "103210.273000", "103210.276000", "103210.278000", "103210.282000", "103210.285000", "103210.287000", "103210.290000", "103210.293000", "103210.296000", "103210.299000", "103210.302000", "103210.305000", "103210.308000", "103250.233000", "103250.236000", "103250.239000", "103250.242000", "103250.245000", "103250.248000", "103250.251000", "103250.253000", "103250.256000", "103250.259000", "103250.262000", "103250.265000", "103250.268000", "103250.271000", "103250.274000", "103250.277000", "103250.280000", "103250.283000", "103250.285000", "103250.288000", "103250.291000", "103250.294000", "103250.297000", "103250.300000", "103250.303000", "103250.306000", "103250.308000", "103330.233000", "103330.236000", "103330.239000", "103330.242000", "103330.245000", "103330.248000", "103330.251000", "103330.254000", "103330.256000", "103330.259000", "103330.262000", "103330.265000", "103330.268000", "103330.271000", "103330.274000", "103330.277000", "103330.280000", "103330.282000", "103330.285000", "103330.288000", "103330.291000", "103330.294000", "103330.297000", "103330.300000", "103330.303000", "103330.306000", "103330.308000", "103410.232000", "103410.235000", "103410.238000", "103410.241000", "103410.244000", "103410.247000", "103410.250000", "103410.252000", "103410.255000", "103410.258000", "103410.261000", "103410.264000", "103410.267000", "103410.270000", "103410.273000", "103410.276000", "103410.278000", "103410.281000", "103410.284000", "103410.287000", "103410.290000", "103410.293000", "103410.296000", "103410.299000", "103410.301000", "103410.304000", "103410.307000", "103450.232000", "103450.235000", "103450.238000", "103450.241000", "103450.244000", "103450.247000", "103450.250000", "103450.253000", "103450.255000", "103450.258000", "103450.261000", "103450.264000", "103450.267000", "103450.270000", "103450.273000", "103450.276000", "103450.279000", "103450.281000", "103450.284000", "103450.288000", "103450.291000", "103450.294000", "103450.297000", "103450.300000", "103450.302000", "103450.305000", "103530.246000", "103530.250000", "103530.252000", "103530.256000", "103530.258000", "103530.261000", "103530.264000", "103530.267000", "103530.270000", "103530.273000", "103530.276000", "103530.279000", "103530.281000", "103530.284000", "103530.287000", "103530.290000", "103530.293000", "103530.296000", "103530.299000", "103530.302000", "103530.305000", "103530.307000", "103530.310000", "103530.313000", "103530.316000", "103530.319000", "103530.322000", "103610.232000", "103610.235000", "103610.238000", "103610.241000", "103610.244000", "103610.247000", "103610.250000", "103610.253000", "103610.255000", "103610.258000", "103610.261000", "103610.264000", "103610.267000", "103610.270000", "103610.273000", "103610.276000", "103610.279000", "103610.281000", "103610.284000", "103610.287000", "103610.290000", "103610.293000", "103610.296000", "103610.299000", "103610.302000", "103610.305000", "103610.308000", "103650.232000", "103650.235000", "103650.238000", "103650.241000", "103650.244000", "103650.247000", "103650.250000", "103650.252000", "103650.255000", "103650.258000", "103650.261000", "103650.264000", "103650.267000", "103650.270000", "103650.273000", "103650.276000", "103650.279000", "103650.282000", "103650.285000", "103650.287000", "103650.290000", "103650.293000", "103650.296000", "103650.299000", "103650.302000", "103650.305000", "103650.308000", "103730.233000", "103730.236000", "103730.239000", "103730.242000", "103730.245000", "103730.248000", "103730.250000", "103730.253000", "103730.256000", "103730.259000", "103730.262000", "103730.265000", "103730.268000", "103730.271000", "103730.274000", "103730.277000", "103730.280000", "103730.283000", "103730.285000", "103730.288000", "103730.291000", "103730.294000", "103730.297000", "103730.300000", "103730.303000", "103730.306000", "103730.308000", "103810.233000", "103810.236000", "103810.239000", "103810.242000", "103810.245000", "103810.247000", "103810.250000", "103810.253000", "103810.256000", "103810.259000", "103810.262000", "103810.265000", "103810.268000", "103810.271000", "103810.273000", "103810.276000", "103810.279000", "103810.282000", "103810.285000", "103810.288000", "103810.291000", "103810.294000", "103810.297000", "103810.300000", "103810.302000", "103810.305000", "103810.308000", "103850.232000", "103850.235000", "103850.238000", "103850.241000", "103850.244000", "103850.247000", "103850.250000", "103850.252000", "103850.255000", "103850.258000", "103850.261000", "103850.264000", "103850.267000", "103850.270000", "103850.273000", "103850.276000", "103850.279000", "103850.282000", "103850.285000", "103850.288000", "103850.291000", "103850.293000", "103850.296000", "103850.299000", "103850.302000", "103850.305000", "103858.667000", "103858.671000", "103858.674000", "103858.677000", "103858.681000", "103858.684000"],
