{
  "AcquisitionMatrixPE": 104,
  "AcquisitionNumber": 1,
  "AcquisitionTime": "09:20:10.870000",
  "BandwidthPerPixelPhaseEncode": 17.17,
  "BaseResolution": 104,
  "BodyPartExamined": "BRAIN",
  "CoilString": "HC1-7;NC1_2",
  "ConsistencyInfo": "N4_VE11C_LATEST_20160120",
  "ConversionSoftware": "dcm2niix",
  "ConversionSoftwareVersion": "v1.0.20190902",
  "DerivedVendorReportedEchoSpacing": 0.000560011,
  "DeviceSerialNumber": "167006",
  "DwellTime": 2.1e-06,
  "EchoTime": 0.037,
  "EchoTrainLength": 104,
  "EffectiveEchoSpacing": 0.000560011,
  "FlipAngle": 52,
  "ImageComments": "Unaliased_MB4_PE3_LB",
  "ImageOrientationPatientDICOM": [0.998679, 0.023602, -0.0456512, -0.0324317, 0.978521, -0.203581],
  "ImageType": [
    "ORIGINAL",
    "PRIMARY",
    "M",
    "MB",
    "ND",
    "MOSAIC"
],
  "ImagingFrequency": 123.259,
  "InPlanePhaseEncodingDirectionDICOM": "COL",
  "InstitutionAddress": "Chemin_Queen-Mary_4565_Montreal_District_CA_H3W_1W5",
  "InstitutionName": "IUGM",
  "InstitutionalDepartmentName": "Department",
  "MRAcquisitionType": "2D",
  "MagneticFieldStrength": 3,
  "Manufacturer": "Siemens",
  "ManufacturersModelName": "Prisma_fit",
  "Modality": "MR",
  "MultibandAccelerationFactor": 4,
  "PartialFourier": 1,
  "PatientPosition": "HFS",
  "PercentPhaseFOV": 100,
  "PhaseEncodingDirection": "j",
  "PhaseEncodingSteps": 104,
  "PhaseResolution": 1,
  "PixelBandwidth": 2290,
  "ProcedureStepDescription": "games_shinobi",
  "ProtocolName": "func_task-shinobi_run-1",
  "PulseSequenceDetails": "%CustomerSeq%_cmrr_mbep2d_bold",
  "ReceiveCoilActiveElements": "HC1-7;NC1,2",
  "ReceiveCoilName": "HeadNeck_64",
  "ReconMatrixPE": 104,
  "RepetitionTime": 1.49,
  "SAR": 0.0293426,
  "ScanOptions": "FS",
  "ScanningSequence": "EP",
  "SequenceName": "epfid2d1_104",
  "SequenceVariant": "SK_SS",
  "SeriesDescription": "func_task-shinobi_run-1",
  "SeriesNumber": 9,
  "ShimSetting": [602, -7254, -8852, 585, -52, -324, 19, 48],
  "SliceThickness": 2,
  "SliceTiming": [0, 0.785, 0.0975, 0.8825, 0.1975, 0.98, 0.295, 1.0775, 0.3925, 1.175, 0.49, 1.275, 0.5875, 1.3725, 0.6875, 0, 0.785, 0.0975, 0.8825, 0.1975, 0.98, 0.295, 1.0775, 0.3925, 1.175, 0.49, 1.275, 0.5875, 1.3725, 0.6875, 0, 0.785, 0.0975, 0.8825, 0.1975, 0.98, 0.295, 1.0775, 0.3925, 1.175, 0.49, 1.275, 0.5875, 1.3725, 0.6875, 0, 0.785, 0.0975, 0.8825, 0.1975, 0.98, 0.295, 1.0775, 0.3925, 1.175, 0.49, 1.275, 0.5875, 1.3725, 0.6875],
  "SoftwareVersions": "syngo_MR_E11",
  "SpacingBetweenSlices": 2,
  "StationName": "MRC35049",
  "TaskName": "shinobi",
  "TotalReadoutTime": 0.0576811,
  "TxRefAmp": 217.839,
  "WipMemBlock": "a5366bae-a5a0-40c5-a21b-1e2afb5b6c2d||Sequence: R016 ve11c/master r/e634e98; Dec 19 2017 11:00:25 by eja",
  "dcmmeta_affine": [
    [-1.9973571300506592, -0.06486330181360245, -0.07973138988018036, 108.43798828125],
    [-0.04720402881503105, 1.9570413827896118, -0.40958595275878906, -71.12226867675781],
    [-0.09130236506462097, 0.4071628749370575, 1.9559862613677979, -51.04591369628906],
    [0.0, 0.0, 0.0, 1.0]
],
  "dcmmeta_reorient_transform": [
    [0.0, -1.0, 0.0, 103.0],
    [1.0, 0.0, 0.0, 0.0],
    [0.0, 0.0, 1.0, 0.0],
    [0.0, 0.0, 0.0, 1.0]
],
  "dcmmeta_shape": [104, 104, 60, 421],
  "dcmmeta_slice_dim": 2,
  "dcmmeta_version": 0.6,
  "global": {
    "const": {
      "AcquisitionMatrix": [104, 0, 0, 104],
      "AngioFlag": "N",
      "BitsAllocated": 16,
      "BitsStored": 16,
      "BodyPartExamined": "BRAIN",
      "Columns": 832,
      "EchoNumbers": 1,
      "EchoTime": 37.0,
      "EchoTrainLength": 104,
      "FlipAngle": 52.0,
      "HighBit": 15,
      "ImageOrientationPatient": [0.99867858410844, 0.02360201478821, -0.0456511833483, -0.0324316497655, 0.97852071234022, -0.2035814422158],
      "ImagePositionPatient": [-805.18483414085, -859.99834011099, 172.33321652746],
      "ImageType": [
        "ORIGINAL",
        "PRIMARY",
        "M",
        "MB",
        "ND",
        "MOSAIC"
],
      "ImagedNucleus": "1H",
      "ImagingFrequency": 123.259021,
      "InPlanePhaseEncodingDirection": "COL",
      "MRAcquisitionType": "2D",
      "MagneticFieldStrength": 3.0,
      "Manufacturer": "SIEMENS",
      "ManufacturerModelName": "Prisma_fit",
      "Modality": "MR",
      "NumberOfAverages": 1.0,
      "NumberOfPhaseEncodingSteps": 104,
      "PercentPhaseFieldOfView": 100.0,
      "PercentSampling": 100.0,
      "PerformedProcedureStepStartTime": "091605.080000",
      "PhotometricInterpretation": "MONOCHROME2",
      "PixelBandwidth": 2290.0,
      "PixelRepresentation": 0,
      "PixelSpacing": [2.0, 2.0],
      "ProtocolName": "func_task-shinobi_run-1",
      "RepetitionTime": 1490.0,
      "Rows": 832,
      "SAR": 0.02934258413409,
      "SamplesPerPixel": 1,
      "ScanOptions": "FS",
      "ScanningSequence": "EP",
      "SequenceName": "epfid2d1_104",
      "SequenceVariant": [
        "SK",
        "SS"
],
      "SeriesDescription": "func_task-shinobi_run-1",
      "SeriesNumber": 9,
      "SeriesTime": "092143.089000",
      "SliceLocation": -39.680165837507,
      "SliceThickness": 2.0,
      "SmallestImagePixelValue": 0,
      "SoftwareVersions": "syngo MR E11",
      "SpacingBetweenSlices": 2.0000000176593,
      "SpecificCharacterSet": "ISO_IR 100",
      "StudyID": "2",
      "StudyTime": "091605.021000",
      "TransmitCoilName": "Body",
      "VariableFlipAngleFlag": "N",
      "WindowCenterWidthExplanation": "Algo1",
      "dBdt": 0.0},
    "slices": {}
  },
  "time": {
    "samples": {
      "AcquisitionNumber": [1, 2, 3, 4, 5, 6, 7, 8, 9, 10, 11, 12, 13, 14, 15, 16, 17, 18, 19, 20, 21, 22, 23, 24, 25, 26, 27, 28, 29, 30, 31, 32, 33, 34, 35, 36, 37, 38, 39, 40, 41, 42, 43, 44, 45, 46, 47, 48, 49, 50, 51, 52, 53, 54, 55, 56, 57, 58, 59, 60, 61, 62, 63, 64, 65, 66, 67, 68, 69, 70, 71, 72, 73, 74, 75, 76, 77, 78, 79, 80, 81, 82, 83, 84, 85, 86, 87, 88, 89, 90, 91, 92, 93, 94, 95, 96, 97, 98, 99, 100, 101, 102, 103, 104, 105, 106, 107, 108, 109, 110, 111, 112, 113, 114, 115, 116, 117, 118, 119, 120, 121, 122, 123, 124, 125, 126, 127, 128, 129, 130, 131, 132, 133, 134, 135, 136, 137, 138, 139, 140, 141, 142, 143, 144, 145, 146, 147, 148, 149, 150, 151, 152, 153, 154, 155, 156, 157, 158, 159, 160, 161, 162, 163, 164, 165, 166, 167, 168, 169, 170, 171, 172, 173, 174, 175, 176, 177, 178, 179, 180, 181, 182, 183, 184, 185, 186, 187, 188, 189, 190, 191, 192, 193, 194, 195, 196, 197, 198, 199, 200, 201, 202, 203, 204, 205, 206, 207, 208, 209, 210, 211, 212, 213, 214, 215, 216, 217, 218, 219, 220, 221, 222, 223, 224, 225, 226, 227, 228, 229, 230, 231, 232, 233, 234, 235, 236, 237, 238, 239, 240, 241, 242, 243, 244, 245, 246, 247, 248, 249, 250, 251, 252, 253, 254, 255, 256, 257, 258, 259, 260, 261, 262, 263, 264, 265, 266, 267, 268, 269, 270, 271, 272, 273, 274, 275, 276, 277, 278, 279, 280, 281, 282, 283, 284, 285, 286, 287, 288, 289, 290, 291, 292, 293, 294, 295, 296, 297, 298, 299, 300, 301, 302, 303, 304, 305, 306, 307, 308, 309, 310, 311, 312, 313, 314, 315, 316, 317, 318, 319, 320, 321, 322, 323, 324, 325, 326, 327, 328, 329, 330, 331, 332, 333, 334, 335, 336, 337, 338, 339, 340, 341, 342, 343, 344, 345, 346, 347, 348, 349, 350, 351, 352, 353, 354, 355, 356, 357, 358, 359, 360, 361, 362, 363, 364, 365, 366, 367, 368, 369, 370, 371, 372, 373, 374, 375, 376, 377, 378, 379, 380, 381, 382, 383, 384, 385, 386, 387, 388, 389, 390, 391, 392, 393, 394, 395, 396, 397, 398, 399, 400, 401, 402, 403, 404, 405, 406, 407, 408, 409, 410, 411, 412, 413, 414, 415, 416, 417, 418, 419, 420, 421],
      "AcquisitionTime": ["092010.870000", "092012.360000", "092013.850000", "092015.340000", "092016.830000", "092018.320000", "092019.810000", "092021.300000", "092022.790000", "092024.280000", "092025.770000", "092027.260000", "092028.750000", "092030.240000", "092031.730000", "092033.220000", "092034.710000", "092036.200000", "092037.690000", "092039.180000", "092040.670000", "092042.160000", "092043.650000", "092045.140000", "092046.630000", "092048.120000", "092049.610000", "092051.100000", "092052.590000", "092054.080000", "092055.570000", "092057.060000", "092058.550000", "092100.040000", "092101.530000", "092103.020000", "092104.510000", "092106.000000", "092107.490000", "092108.980000", "092110.470000", "092111.960000", "092113.450000", "092114.940000", "092116.430000", "092117.920000", "092119.410000", "092120.900000", "092122.390000", "092123.880000", "092125.370000", "092126.860000", "092128.350000", "092129.840000", "092131.330000", "092132.820000", "092134.310000", "092135.800000", "092137.290000", "092138.780000", "092140.270000", "092141.760000", "092143.250000", "092144.740000", "092146.230000", "092147.720000", "092149.210000", "092150.700000", "092152.190000", "092153.680000", "092155.170000", "092156.660000", "092158.150000", "092159.640000", "092201.130000", "092202.620000", "092204.110000", "092205.600000", "092207.090000", "092208.580000", "092210.070000", "092211.560000", "092213.050000", "092214.540000", "092216.030000", "092217.520000", "092219.010000", "092220.500000", "092221.990000", "092223.480000", "092224.970000", "092226.460000", "092227.950000", "092229.440000", "092230.930000", "092232.420000", "092233.910000", "092235.400000", "092236.890000", "092238.380000", "092239.870000", "092241.360000", "092242.850000", "092244.340000", "092245.830000", "092247.320000", "092248.810000", "092250.300000", "092251.790000", "092253.280000", "092254.770000", "092256.260000", "092257.750000", "092259.240000", "092300.730000", "092302.220000", "092303.710000", "092305.200000", "092306.690000", "092308.180000", "092309.670000", "092311.160000", "092312.650000", "092314.140000", "092315.630000", "092317.120000", "092318.610000", "092320.100000", "092321.590000", "092323.080000", "092324.570000", "092326.060000", "092327.550000", "092329.040000", "092330.530000", "092332.020000", "092333.510000", "092335.000000", "092336.490000", "092337.980000", "092339.470000", "092340.960000", "092342.450000", "092343.940000", "092345.430000", "092346.920000", "092348.410000", "092349.900000", "092351.390000", "092352.880000", "092354.370000", "092355.860000", "092357.350000", "092358.840000", "092400.330000", "092401.820000", "092403.310000", "092404.800000", "092406.290000", "092407.780000", "092409.270000", "092410.760000", "092412.250000", "092413.740000", "092415.230000", "092416.720000", "092418.210000", "092419.700000", "092421.190000", "092422.680000", "092424.170000", "092425.660000", "092427.150000", "092428.640000", "092430.130000", "092431.620000", "092433.110000", "092434.600000", "092436.090000", "092437.580000", "092439.070000", "092440.560000", "092442.050000", "092443.540000", "092445.030000", "092446.520000", "092448.010000", "092449.500000", "092450.990000", "092452.480000", "092453.970000", "092455.460000", "092456.950000", "092458.440000", "092459.930000", "092501.420000", "092502.910000", "092504.400000", "092505.890000", "092507.380000", "092508.870000", "092510.360000", "092511.850000", "092513.340000", "092514.830000", "092516.320000", "092517.810000", "092519.300000", "092520.790000", "092522.280000", "092523.770000", "092525.260000", "092526.750000", "092528.240000", "092529.730000", "092531.220000", "092532.710000", "092534.200000", "092535.690000", "092537.180000", "092538.670000", "092540.160000", "092541.650000", "092543.140000", "092544.630000", "092546.120000", "092547.610000", "092549.100000", "092550.590000", "092552.080000", "092553.570000", "092555.060000", "092556.550000", "092558.040000", "092559.530000", "092601.020000", "092602.510000", "092604.000000", "092605.490000", "092606.980000", "092608.470000", "092609.960000", "092611.450000", "092612.940000", "092614.430000", "092615.920000", "092617.410000", "092618.900000", "092620.390000", "092621.880000", "092623.370000", "092624.860000", "092626.350000", "092627.840000", "092629.330000", "092630.820000", "092632.310000", "092633.800000", "092635.290000", "092636.780000", "092638.270000", "092639.760000", "092641.250000", "092642.740000", "092644.230000", "092645.720000", "092647.210000", "092648.700000", "092650.190000", "092651.680000", "092653.170000", "092654.660000", "092656.150000", "092657.640000", "092659.130000", "092700.620000", "092702.110000", "092703.600000", "092705.090000", "092706.580000", "092708.070000", "092709.560000", "092711.050000", "092712.540000", "092714.030000", "092715.520000", "092717.010000", "092718.500000", "092719.990000", "092721.480000", "092722.970000", "092724.460000", "092725.950000", "092727.440000", "092728.930000", "092730.420000", "092731.910000", "092733.400000", "092734.890000", "092736.380000", "092737.870000", "092739.360000", "092740.850000", "092742.340000", "092743.830000", "092745.320000", "092746.810000", "092748.300000", "092749.790000", "092751.280000", "092752.770000", "092754.260000", "092755.750000", "092757.240000", "092758.730000", "092800.220000", "092801.710000", "092803.200000", "092804.690000", "092806.180000", "092807.670000", "092809.160000", "092810.650000", "092812.140000", "092813.630000", "092815.120000", "092816.610000", "092818.100000", "092819.590000", "092821.080000", "092822.570000", "092824.060000", "092825.550000", "092827.040000", "092828.530000", "092830.020000", "092831.510000", "092833.000000", "092834.490000", "092835.980000", "092837.470000", "092838.960000", "092840.450000", "092841.940000", "092843.430000", "092844.920000", "092846.410000", "092847.900000", "092849.390000", "092850.880000", "092852.370000", "092853.860000", "092855.350000", "092856.840000", "092858.330000", "092859.820000", "092901.310000", "092902.800000", "092904.290000", "092905.780000", "092907.270000", "092908.760000", "092910.250000", "092911.740000", "092913.230000", "092914.720000", "092916.210000", "092917.700000", "092919.190000", "092920.680000", "092922.170000", "092923.660000", "092925.150000", "092926.640000", "092928.130000", "092929.620000", "092931.110000", "092932.600000", "092934.090000", "092935.580000", "092937.070000", "092938.560000", "092940.050000", "092941.540000", "092943.030000", "092944.520000", "092946.010000", "092947.500000", "092948.990000", "092950.480000", "092951.970000", "092953.460000", "092954.950000", "092956.440000", "092957.930000", "092959.420000", "093000.910000", "093002.400000", "093003.890000", "093005.380000", "093006.870000", "093008.360000", "093009.850000", "093011.340000", "093012.830000", "093014.320000", "093015.810000", "093017.300000", "093018.790000", "093020.280000", "093021.770000", "093023.260000", "093024.750000", "093026.240000", "093027.730000", "093029.220000", "093030.710000", "093032.200000", "093033.690000", "093035.180000", "093036.670000"],
      "ContentTime": ["092143.092000", "092143.095000", "092143.098000", "092143.101000", "092143.104000", "092143.107000", "092143.112000", "092143.114000", "092143.117000", "092143.120000", "092143.129000", "092143.132000", "092143.135000", "092143.138000", "092143.141000", "092143.144000", "092143.147000", "092143.149000", "092143.152000", "092143.155000", "092143.158000", "092143.161000", "092143.163000", "092143.166000", "092143.169000", "092143.172000", "092143.175000", "092143.178000", "092143.181000", "092143.184000", "092143.186000", "092143.189000", "092143.193000", "092143.195000", "092143.198000", "092143.201000", "092143.204000", "092203.065000", "092203.068000", "092203.071000", "092203.074000", "092203.076000", "092203.079000", "092203.082000", "092203.089000", "092203.092000", "092203.095000", "092203.098000", "092203.101000", "092203.103000", "092203.106000", "092203.109000", "092203.126000", "092203.128000", "092203.131000", "092203.139000", "092203.142000", "092223.065000", "092223.068000", "092223.071000", "092223.074000", "092223.077000", "092223.079000", "092223.082000", "092223.085000", "092223.088000", "092223.091000", "092223.094000", "092223.096000", "092223.099000", "092223.102000", "092223.105000", "092223.108000", "092223.111000", "092223.114000", "092223.116000", "092223.119000", "092223.122000", "092243.065000", "092243.068000", "092243.071000", "092243.074000", "092243.076000", "092243.079000", "092243.082000", "092243.085000", "092243.088000", "092243.091000", "092243.093000", "092243.096000", "092243.099000", "092243.102000", "092243.105000", "092243.108000", "092243.111000", "092243.114000", "092243.116000", "092243.119000", "092323.065000", "092323.068000", "092323.071000", "092323.074000", "092323.076000", "092323.079000", "092323.082000", "092323.085000", "092323.088000", "092323.091000", "092323.094000", "092323.097000", "092323.100000", "092323.102000", "092323.105000", "092323.108000", "092323.111000", "092323.114000", "092323.117000", "092323.120000", "092323.122000", "092323.125000", "092323.128000", "092323.131000", "092323.134000", "092323.137000", "092323.140000", "092323.143000", "092323.145000", "092323.148000", "092403.065000", "092403.068000", "092403.071000", "092403.074000", "092403.077000", "092403.079000", "092403.082000", "092403.085000", "092403.088000", "092403.091000", "092403.094000", "092403.097000", "092403.099000", "092403.102000", "092403.105000", "092403.108000", "092403.111000", "092403.114000", "092403.117000", "092403.120000", "092403.122000", "092403.125000", "092403.128000", "092403.131000", "092403.134000", "092403.137000", "092403.140000", "092443.065000", "092443.068000", "092443.071000", "092443.074000", "092443.077000", "092443.079000", "092443.082000", "092443.085000", "092443.088000", "092443.091000", "092443.094000", "092443.097000", "092443.099000", "092443.102000", "092443.105000", "092443.108000", "092443.111000", "092443.114000", "092443.117000", "092443.120000", "092443.122000", "092443.125000", "092443.128000", "092443.131000", "092443.134000", "092443.137000", "092443.140000", "092523.065000", "092523.068000", "092523.071000", "092523.074000", "092523.077000", "092523.080000", "092523.082000", "092523.085000", "092523.088000", "092523.091000", "092523.094000", "092523.097000", "092523.100000", "092523.103000", "092523.105000", "092523.108000", "092523.111000", "092523.114000", "092523.117000", "092523.120000", "092523.123000", "092523.126000", "092523.128000", "092523.131000", "092523.134000", "092523.137000", "092523.140000", "092543.065000", "092543.068000", "092543.071000", "092543.074000", "092543.077000", "092543.079000", "092543.082000", "092543.085000", "092543.088000", "092543.091000", "092543.094000", "092543.097000", "092543.100000", "092623.065000", "092623.068000", "092623.071000", "092623.074000", "092623.077000", "092623.080000", "092623.082000", "092623.085000", "092623.088000", "092623.091000", "092623.094000", "092623.097000", "092623.100000", "092623.103000", "092623.105000", "092623.108000", "092623.111000", "092623.114000", "092623.117000", "092623.120000", "092623.123000", "092623.126000", "092623.129000", "092623.131000", "092623.134000", "092623.137000", "092623.140000", "092703.065000", "092703.068000", "092703.071000", "092703.074000", "092703.077000", "092703.080000", "092703.082000", "092703.085000", "092703.088000", "092703.091000", "092703.094000", "092703.097000", "092703.100000", "092703.103000", "092703.105000", "092703.108000", "092703.111000", "092703.114000", "092703.117000", "092703.120000", "092703.123000", "092703.126000", "092703.128000", "092703.131000", "092703.134000", "092703.137000", "092703.140000", "092743.065000", "092743.068000", "092743.071000", "092743.074000", "092743.077000", "092743.080000", "092743.082000", "092743.085000", "092743.088000", "092743.091000", "092743.094000", "092743.097000", "092743.100000", "092743.103000", "092743.105000", "092743.108000", "092743.111000", "092743.114000", "092743.117000", "092743.120000", "092743.123000", "092743.126000", "092743.128000", "092743.131000", "092743.134000", "092743.137000", "092743.140000", "092823.065000", "092823.068000", "092823.071000", "092823.074000", "092823.077000", "092823.080000", "092823.083000", "092823.085000", "092823.088000", "092823.091000", "092823.094000", "092823.097000", "092823.100000", "092823.103000", "092823.106000", "092823.109000", "092823.111000", "092823.114000", "092823.117000", "092823.120000", "092823.123000", "092823.126000", "092823.133000", "092823.136000", "092823.139000", "092823.142000", "092823.145000", "092903.065000", "092903.068000", "092903.071000", "092903.075000", "092903.078000", "092903.080000", "092903.083000", "092903.086000", "092903.089000", "092903.092000", "092903.095000", "092903.098000", "092903.101000", "092903.104000", "092903.106000", "092903.109000", "092903.112000", "092903.115000", "092903.118000", "092903.121000", "092903.124000", "092903.127000", "092903.130000", "092903.133000", "092903.135000", "092903.138000", "092943.065000", "092943.068000", "092943.071000", "092943.074000", "092943.077000", "092943.080000", "092943.082000", "092943.086000", "092943.088000", "092943.091000", "092943.094000", "092943.097000", "092943.100000", "092943.103000", "092943.105000", "092943.109000", "092943.111000", "092943.114000", "092943.117000", "092943.120000", "092943.123000", "092943.126000", "092943.128000", "092943.131000", "092943.134000", "092943.137000", "092943.140000", "093023.065000", "093023.068000", "093023.071000", "093023.074000", "093023.077000", "093023.080000", "093023.083000", "093023.085000", "093023.088000", "093023.091000", "093023.094000", "093023.097000", "093023.100000", "093023.103000", "093023.106000", "093023.109000", "093023.112000", "093023.114000", "093023.118000", "093023.120000", "093023.123000", "093023.126000", "093023.129000", "093023.132000", "093023.135000", "093023.138000", "093023.141000", "093038.988000", "093038.991000", "093038.994000", "093038.997000", "093039.001000", "093039.004000", "093039.007000", "093039.012000", "093039.015000", "093039.019000", "093039.022000"],
      "InstanceCreationTime": ["092143.092000", "092143.095000", "092143.098000", "092143.101000", "092143.104000", "092143.107000", "092143.112000", "092143.114000", "092143.117000", "092143.120000", "092143.129000", "092143.132000", "092143.135000", "092143.138000", "092143.141000", "092143.144000", "092143.147000", "092143.149000", "092143.152000", "092143.155000", "092143.158000", "092143.161000", "092143.163000", "092143.166000", "092143.169000", "092143.172000", "092143.175000", "092143.178000", "092143.181000", "092143.184000", "092143.186000", "092143.189000", "092143.193000", "092143.195000", "092143.198000", "092143.201000", "092143.204000", "092203.065000", "092203.068000", "092203.071000", "092203.074000", "092203.076000", "092203.079000", "092203.082000", "092203.089000", "092203.092000", "092203.095000", "092203.098000", "092203.101000", "092203.103000", "092203.106000", "092203.109000", "092203.126000", "092203.128000", "092203.131000", "092203.139000", "092203.142000", "092223.065000", "092223.068000", "092223.071000", "092223.074000", "092223.077000", "092223.079000", "092223.082000", "092223.085000", "092223.088000", "092223.091000", "092223.094000", "092223.096000", "092223.099000", "092223.102000", "092223.105000", "092223.108000", "092223.111000", "092223.114000", "092223.116000", "092223.119000", "092223.122000", "092243.065000", "092243.068000", "092243.071000", "092243.074000", "092243.076000", "092243.079000", "092243.082000", "092243.085000", "092243.088000", "092243.091000", "092243.093000", "092243.096000", "092243.099000", "092243.102000", "092243.105000", "092243.108000", "092243.111000", "092243.114000", "092243.116000", "092243.119000", "092323.065000", "092323.068000", "092323.071000", "092323.074000", "092323.076000", "092323.079000", "092323.082000", "092323.085000", "092323.088000", "092323.091000", "092323.094000", "092323.097000", "092323.100000", "092323.102000", "092323.105000", "092323.108000", "092323.111000", "092323.114000", "092323.117000", "092323.120000", "092323.122000", "092323.125000", "092323.128000", "092323.131000", "092323.134000", "092323.137000", "092323.140000", "092323.143000", "092323.145000", "092323.148000", "092403.065000", "092403.068000", "092403.071000", "092403.074000", "092403.077000", "092403.079000", "092403.082000", "092403.085000", "092403.088000", "092403.091000", "092403.094000", "092403.097000", "092403.099000", "092403.102000", "092403.105000", "092403.108000", "092403.111000", "092403.114000", "092403.117000", "092403.120000", "092403.122000", "092403.125000", "092403.128000", "092403.131000", "092403.134000", "092403.137000", "092403.140000", "092443.065000", "092443.068000", "092443.071000", "092443.074000", "092443.077000", "092443.079000", "092443.082000", "092443.085000", "092443.088000", "092443.091000", "092443.094000", "092443.097000", "092443.099000", "092443.102000", "092443.105000", "092443.108000", "092443.111000", "092443.114000", "092443.117000", "092443.120000", "092443.122000", "092443.125000", "092443.128000", "092443.131000", "092443.134000", "092443.137000", "092443.140000", "092523.065000", "092523.068000", "092523.071000", "092523.074000", "092523.077000", "092523.080000", "092523.082000", "092523.085000", "092523.088000", "092523.091000", "092523.094000", "092523.097000", "092523.100000", "092523.103000", "092523.105000", "092523.108000", "092523.111000", "092523.114000", "092523.117000", "092523.120000", "092523.123000", "092523.126000", "092523.128000", "092523.131000", "092523.134000", "092523.137000", "092523.140000", "092543.065000", "092543.068000", "092543.071000", "092543.074000", "092543.077000", "092543.079000", "092543.082000", "092543.085000", "092543.088000", "092543.091000", "092543.094000", "092543.097000", "092543.100000", "092623.065000", "092623.068000", "092623.071000", "092623.074000", "092623.077000", "092623.080000", "092623.082000", "092623.085000", "092623.088000", "092623.091000", "092623.094000", "092623.097000", "092623.100000", "092623.103000", "092623.105000", "092623.108000", "092623.111000", "092623.114000", "092623.117000", "092623.120000", "092623.123000", "092623.126000", "092623.129000", "092623.131000", "092623.134000", "092623.137000", "092623.140000", "092703.065000", "092703.068000", "092703.071000", "092703.074000", "092703.077000", "092703.080000", "092703.082000", "092703.085000", "092703.088000", "092703.091000", "092703.094000", "092703.097000", "092703.100000", "092703.103000", "092703.105000", "092703.108000", "092703.111000", "092703.114000", "092703.117000", "092703.120000", "092703.123000", "092703.126000", "092703.128000", "092703.131000", "092703.134000", "092703.137000", "092703.140000", "092743.065000", "092743.068000", "092743.071000", "092743.074000", "092743.077000", "092743.080000", "092743.082000", "092743.085000", "092743.088000", "092743.091000", "092743.094000", "092743.097000", "092743.100000", "092743.103000", "092743.105000", "092743.108000", "092743.111000", "092743.114000", "092743.117000", "092743.120000", "092743.123000", "092743.126000", "092743.128000", "092743.131000", "092743.134000", "092743.137000", "092743.140000", "092823.065000", "092823.068000", "092823.071000", "092823.074000", "092823.077000", "092823.080000", "092823.083000", "092823.085000", "092823.088000", "092823.091000", "092823.094000", "092823.097000", "092823.100000", "092823.103000", "092823.106000", "092823.109000", "092823.111000", "092823.114000", "092823.117000", "092823.120000", "092823.123000", "092823.126000", "092823.133000", "092823.136000", "092823.139000", "092823.142000", "092823.145000", "092903.065000", "092903.068000", "092903.071000", "092903.075000", "092903.078000", "092903.080000", "092903.083000", "092903.086000", "092903.089000", "092903.092000", "092903.095000", "092903.098000", "092903.101000", "092903.104000", "092903.106000", "092903.109000", "092903.112000", "092903.115000", "092903.118000", "092903.121000", "092903.124000", "092903.127000", "092903.130000", "092903.133000", "092903.135000", "092903.138000", "092943.065000", "092943.068000", "092943.071000", "092943.074000", "092943.077000", "092943.080000", "092943.082000", "092943.086000", "092943.088000", "092943.091000", "092943.094000", "092943.097000", "092943.100000", "092943.103000", "092943.105000", "092943.109000", "092943.111000", "092943.114000", "092943.117000", "092943.120000", "092943.123000", "092943.126000", "092943.128000", "092943.131000", "092943.134000", "092943.137000", "092943.140000", "093023.065000", "093023.068000", "093023.071000", "093023.074000", "093023.077000", "093023.080000", "093023.083000", "093023.085000", "093023.088000", "093023.091000", "093023.094000", "093023.097000", "093023.100000", "093023.103000", "093023.106000", "093023.109000", "093023.112000", "093023.114000", "093023.118000", "093023.120000", "093023.123000", "093023.126000", "093023.129000", "093023.132000", "093023.135000", "093023.138000", "093023.141000", "093038.988000", "093038.991000", "093038.994000", "093038.997000", "093039.001000", "093039.004000", "093039.007000", "093039.012000", "093039.015000", "093039.019000", "093039.022000"],
