{
  "AcquisitionMatrixPE": 104,
  "AcquisitionNumber": 1,
  "AcquisitionTime": "13:55:45.462500",
  "BandwidthPerPixelPhaseEncode": 17.17,
  "BaseResolution": 104,
  "BodyPartExamined": "BRAIN",
  "CoilString": "HC1-7;NC1_2",
  "ConsistencyInfo": "N4_VE11C_LATEST_20160120",
  "ConversionSoftware": "dcm2niix",
  "ConversionSoftwareVersion": "v1.0.20190902",
  "DerivedVendorReportedEchoSpacing": 0.000560011,
  "DeviceSerialNumber": "167006",
  "DwellTime": 2.1e-06,
  "EchoTime": 0.037,
  "EchoTrainLength": 104,
  "EffectiveEchoSpacing": 0.000560011,
  "FlipAngle": 52,
  "ImageComments": "Unaliased_MB4_PE3_LB",
  "ImageOrientationPatientDICOM": [0.999427, -0.0332706, 0.00621548, 0.033329, 0.935437, -0.35192],
  "ImageType": [
    "ORIGINAL",
    "PRIMARY",
    "M",
    "MB",
    "ND",
    "MOSAIC"
],
  "ImagingFrequency": 123.259,
  "InPlanePhaseEncodingDirectionDICOM": "COL",
  "InstitutionAddress": "Chemin_Queen-Mary_4565_Montreal_District_CA_H3W_1W5",
  "InstitutionName": "IUGM",
  "InstitutionalDepartmentName": "Department",
  "MRAcquisitionType": "2D",
  "MagneticFieldStrength": 3,
  "Manufacturer": "Siemens",
  "ManufacturersModelName": "Prisma_fit",
  "Modality": "MR",
  "MultibandAccelerationFactor": 4,
  "PartialFourier": 1,
  "PatientPosition": "HFS",
  "PercentPhaseFOV": 100,
  "PhaseEncodingDirection": "j",
  "PhaseEncodingSteps": 104,
  "PhaseResolution": 1,
  "PixelBandwidth": 2290,
  "ProcedureStepDescription": "games_shinobi",
  "ProtocolName": "func_task-shinobi_run-3",
  "PulseSequenceDetails": "%CustomerSeq%_cmrr_mbep2d_bold",
  "ReceiveCoilActiveElements": "HC1-7;NC1,2",
  "ReceiveCoilName": "HeadNeck_64",
  "ReconMatrixPE": 104,
  "RepetitionTime": 1.49,
  "SAR": 0.0294334,
  "ScanOptions": "FS",
  "ScanningSequence": "EP",
  "SequenceName": "epfid2d1_104",
  "SequenceVariant": "SK_SS",
  "SeriesDescription": "func_task-shinobi_run-3",
  "SeriesNumber": 13,
  "ShimSetting": [637, -7266, -8854, 558, 21, -238, -77, -13],
  "SliceThickness": 2,
  "SliceTiming": [0, 0.7825, 0.0975, 0.8825, 0.195, 0.98, 0.2925, 1.0775, 0.3925, 1.175, 0.49, 1.2725, 0.5875, 1.37, 0.685, 0, 0.7825, 0.0975, 0.8825, 0.195, 0.98, 0.2925, 1.0775, 0.3925, 1.175, 0.49, 1.2725, 0.5875, 1.37, 0.685, 0, 0.7825, 0.0975, 0.8825, 0.195, 0.98, 0.2925, 1.0775, 0.3925, 1.175, 0.49, 1.2725, 0.5875, 1.37, 0.685, 0, 0.7825, 0.0975, 0.8825, 0.195, 0.98, 0.2925, 1.0775, 0.3925, 1.175, 0.49, 1.2725, 0.5875, 1.37, 0.685],
  "SoftwareVersions": "syngo_MR_E11",
  "SpacingBetweenSlices": 2,
  "StationName": "MRC35049",
  "TaskName": "shinobi",
  "TotalReadoutTime": 0.0576811,
  "TxRefAmp": 217.303,
  "WipMemBlock": "2596c653-691a-4cbe-9aa7-80974bcd3290||Sequence: R016 ve11c/master r/e634e98; Dec 19 2017 11:00:25 by eja",
  "dcmmeta_affine": [
    [-1.998854160308838, 0.06665798276662827, -0.011788804084062576, 103.092041015625],
    [0.06654122471809387, 1.870873212814331, -0.7038505673408508, -66.88230895996094],
    [0.012430950999259949, 0.7038394808769226, 1.8720190525054932, -70.08063507080078],
    [0.0, 0.0, 0.0, 1.0]
],
  "dcmmeta_reorient_transform": [
    [0.0, -1.0, 0.0, 103.0],
    [1.0, 0.0, 0.0, 0.0],
    [0.0, 0.0, 1.0, 0.0],
    [0.0, 0.0, 0.0, 1.0]
],
  "dcmmeta_shape": [104, 104, 60, 525],
  "dcmmeta_slice_dim": 2,
  "dcmmeta_version": 0.6,
  "global": {
    "const": {
      "AcquisitionMatrix": [104, 0, 0, 104],
      "AngioFlag": "N",
      "BitsAllocated": 16,
      "BitsStored": 16,
      "BodyPartExamined": "BRAIN",
      "Columns": 832,
      "EchoNumbers": 1,
      "EchoTime": 37.0,
      "EchoTrainLength": 104,
      "FlipAngle": 52.0,
      "HighBit": 15,
      "ImageOrientationPatient": [0.99942705300299, -0.0332706114825, 0.00621547563266, 0.03332899268353, 0.93543661854389, -0.3519197507016],
      "ImagePositionPatient": [-861.80421275807, -782.59448657316, 254.08754285589],
      "ImageType": [
        "ORIGINAL",
        "PRIMARY",
        "M",
        "MB",
        "ND",
        "MOSAIC"
],
      "ImagedNucleus": "1H",
      "ImagingFrequency": 123.259012,
      "InPlanePhaseEncodingDirection": "COL",
      "MRAcquisitionType": "2D",
      "MagneticFieldStrength": 3.0,
      "Manufacturer": "SIEMENS",
      "ManufacturerModelName": "Prisma_fit",
      "Modality": "MR",
      "NumberOfAverages": 1.0,
      "NumberOfPhaseEncodingSteps": 104,
      "PercentPhaseFieldOfView": 100.0,
      "PercentSampling": 100.0,
      "PerformedProcedureStepStartTime": "124703.575000",
      "PhotometricInterpretation": "MONOCHROME2",
      "PixelBandwidth": 2290.0,
      "PixelRepresentation": 0,
      "PixelSpacing": [2.0, 2.0],
      "ProtocolName": "func_task-shinobi_run-3",
      "RepetitionTime": 1490.0,
      "Rows": 832,
      "SAR": 0.02943343317913,
      "SamplesPerPixel": 1,
      "ScanOptions": "FS",
      "ScanningSequence": "EP",
      "SequenceName": "epfid2d1_104",
      "SequenceVariant": [
        "SK",
        "SS"
],
      "SeriesDescription": "func_task-shinobi_run-3",
      "SeriesNumber": 13,
      "SeriesTime": "135706.058000",
      "SliceLocation": -42.666236269524,
      "SliceThickness": 2.0,
      "SmallestImagePixelValue": 0,
      "SoftwareVersions": "syngo MR E11",
      "SpacingBetweenSlices": 2.0000000205438,
      "SpecificCharacterSet": "ISO_IR 100",
      "StudyID": "1",
      "StudyTime": "124703.503000",
      "TransmitCoilName": "Body",
      "VariableFlipAngleFlag": "N",
      "WindowCenterWidthExplanation": "Algo1",
      "dBdt": 0.0},
    "slices": {}
  },
  "time": {
    "samples": {
      "AcquisitionNumber": [1, 2, 3, 4, 5, 6, 7, 8, 9, 10, 11, 12, 13, 14, 15, 16, 17, 18, 19, 20, 21, 22, 23, 24, 25, 26, 27, 28, 29, 30, 31, 32, 33, 34, 35, 36, 37, 38, 39, 40, 41, 42, 43, 44, 45, 46, 47, 48, 49, 50, 51, 52, 53, 54, 55, 56, 57, 58, 59, 60, 61, 62, 63, 64, 65, 66, 67, 68, 69, 70, 71, 72, 73, 74, 75, 76, 77, 78, 79, 80, 81, 82, 83, 84, 85, 86, 87, 88, 89, 90, 91, 92, 93, 94, 95, 96, 97, 98, 99, 100, 101, 102, 103, 104, 105, 106, 107, 108, 109, 110, 111, 112, 113, 114, 115, 116, 117, 118, 119, 120, 121, 122, 123, 124, 125, 126, 127, 128, 129, 130, 131, 132, 133, 134, 135, 136, 137, 138, 139, 140, 141, 142, 143, 144, 145, 146, 147, 148, 149, 150, 151, 152, 153, 154, 155, 156, 157, 158, 159, 160, 161, 162, 163, 164, 165, 166, 167, 168, 169, 170, 171, 172, 173, 174, 175, 176, 177, 178, 179, 180, 181, 182, 183, 184, 185, 186, 187, 188, 189, 190, 191, 192, 193, 194, 195, 196, 197, 198, 199, 200, 201, 202, 203, 204, 205, 206, 207, 208, 209, 210, 211, 212, 213, 214, 215, 216, 217, 218, 219, 220, 221, 222, 223, 224, 225, 226, 227, 228, 229, 230, 231, 232, 233, 234, 235, 236, 237, 238, 239, 240, 241, 242, 243, 244, 245, 246, 247, 248, 249, 250, 251, 252, 253, 254, 255, 256, 257, 258, 259, 260, 261, 262, 263, 264, 265, 266, 267, 268, 269, 270, 271, 272, 273, 274, 275, 276, 277, 278, 279, 280, 281, 282, 283, 284, 285, 286, 287, 288, 289, 290, 291, 292, 293, 294, 295, 296, 297, 298, 299, 300, 301, 302, 303, 304, 305, 306, 307, 308, 309, 310, 311, 312, 313, 314, 315, 316, 317, 318, 319, 320, 321, 322, 323, 324, 325, 326, 327, 328, 329, 330, 331, 332, 333, 334, 335, 336, 337, 338, 339, 340, 341, 342, 343, 344, 345, 346, 347, 348, 349, 350, 351, 352, 353, 354, 355, 356, 357, 358, 359, 360, 361, 362, 363, 364, 365, 366, 367, 368, 369, 370, 371, 372, 373, 374, 375, 376, 377, 378, 379, 380, 381, 382, 383, 384, 385, 386, 387, 388, 389, 390, 391, 392, 393, 394, 395, 396, 397, 398, 399, 400, 401, 402, 403, 404, 405, 406, 407, 408, 409, 410, 411, 412, 413, 414, 415, 416, 417, 418, 419, 420, 421, 422, 423, 424, 425, 426, 427, 428, 429, 430, 431, 432, 433, 434, 435, 436, 437, 438, 439, 440, 441, 442, 443, 444, 445, 446, 447, 448, 449, 450, 451, 452, 453, 454, 455, 456, 457, 458, 459, 460, 461, 462, 463, 464, 465, 466, 467, 468, 469, 470, 471, 472, 473, 474, 475, 476, 477, 478, 479, 480, 481, 482, 483, 484, 485, 486, 487, 488, 489, 490, 491, 492, 493, 494, 495, 496, 497, 498, 499, 500, 501, 502, 503, 504, 505, 506, 507, 508, 509, 510, 511, 512, 513, 514, 515, 516, 517, 518, 519, 520, 521, 522, 523, 524, 525],
      "AcquisitionTime": ["135545.462500", "135546.952500", "135548.442500", "135549.932500", "135551.422500", "135552.912500", "135554.402500", "135555.892500", "135557.382500", "135558.872500", "135600.362500", "135601.852500", "135603.342500", "135604.832500", "135606.322500", "135607.812500", "135609.302500", "135610.792500", "135612.282500", "135613.772500", "135615.262500", "135616.752500", "135618.242500", "135619.732500", "135621.222500", "135622.712500", "135624.202500", "135625.692500", "135627.182500", "135628.672500", "135630.162500", "135631.652500", "135633.142500", "135634.632500", "135636.122500", "135637.612500", "135639.102500", "135640.592500", "135642.082500", "135643.572500", "135645.062500", "135646.552500", "135648.042500", "135649.532500", "135651.022500", "135652.512500", "135654.002500", "135655.492500", "135656.982500", "135658.472500", "135659.962500", "135701.452500", "135702.942500", "135704.432500", "135705.922500", "135707.412500", "135708.902500", "135710.392500", "135711.882500", "135713.372500", "135714.862500", "135716.352500", "135717.842500", "135719.332500", "135720.822500", "135722.312500", "135723.802500", "135725.292500", "135726.782500", "135728.272500", "135729.762500", "135731.252500", "135732.742500", "135734.232500", "135735.722500", "135737.212500", "135738.702500", "135740.192500", "135741.682500", "135743.172500", "135744.662500", "135746.152500", "135747.642500", "135749.132500", "135750.622500", "135752.112500", "135753.602500", "135755.092500", "135756.582500", "135758.072500", "135759.562500", "135801.052500", "135802.542500", "135804.032500", "135805.522500", "135807.012500", "135808.502500", "135809.992500", "135811.482500", "135812.972500", "135814.462500", "135815.952500", "135817.442500", "135818.932500", "135820.422500", "135821.912500", "135823.402500", "135824.892500", "135826.382500", "135827.872500", "135829.362500", "135830.852500", "135832.342500", "135833.832500", "135835.322500", "135836.812500", "135838.302500", "135839.792500", "135841.282500", "135842.772500", "135844.262500", "135845.752500", "135847.242500", "135848.732500", "135850.222500", "135851.712500", "135853.202500", "135854.692500", "135856.182500", "135857.672500", "135859.162500", "135900.652500", "135902.142500", "135903.632500", "135905.122500", "135906.612500", "135908.102500", "135909.592500", "135911.082500", "135912.572500", "135914.062500", "135915.552500", "135917.042500", "135918.532500", "135920.022500", "135921.512500", "135923.002500", "135924.492500", "135925.982500", "135927.472500", "135928.962500", "135930.452500", "135931.942500", "135933.432500", "135934.922500", "135936.412500", "135937.902500", "135939.392500", "135940.882500", "135942.372500", "135943.862500", "135945.352500", "135946.842500", "135948.332500", "135949.822500", "135951.312500", "135952.802500", "135954.292500", "135955.782500", "135957.272500", "135958.762500", "140000.252500", "140001.742500", "140003.232500", "140004.722500", "140006.212500", "140007.702500", "140009.192500", "140010.682500", "140012.172500", "140013.662500", "140015.152500", "140016.642500", "140018.132500", "140019.622500", "140021.112500", "140022.602500", "140024.092500", "140025.582500", "140027.072500", "140028.562500", "140030.052500", "140031.542500", "140033.032500", "140034.522500", "140036.012500", "140037.502500", "140038.992500", "140040.482500", "140041.972500", "140043.462500", "140044.952500", "140046.442500", "140047.932500", "140049.422500", "140050.912500", "140052.402500", "140053.892500", "140055.382500", "140056.872500", "140058.362500", "140059.852500", "140101.342500", "140102.832500", "140104.322500", "140105.812500", "140107.302500", "140108.792500", "140110.282500", "140111.772500", "140113.262500", "140114.752500", "140116.242500", "140117.732500", "140119.222500", "140120.712500", "140122.202500", "140123.692500", "140125.182500", "140126.672500", "140128.162500", "140129.652500", "140131.142500", "140132.632500", "140134.122500", "140135.612500", "140137.102500", "140138.592500", "140140.082500", "140141.572500", "140143.062500", "140144.552500", "140146.042500", "140147.532500", "140149.022500", "140150.512500", "140152.002500", "140153.492500", "140154.982500", "140156.472500", "140157.962500", "140159.452500", "140200.942500", "140202.432500", "140203.922500", "140205.412500", "140206.902500", "140208.392500", "140209.882500", "140211.372500", "140212.862500", "140214.352500", "140215.842500", "140217.332500", "140218.822500", "140220.312500", "140221.802500", "140223.292500", "140224.782500", "140226.272500", "140227.762500", "140229.252500", "140230.742500", "140232.232500", "140233.722500", "140235.212500", "140236.702500", "140238.192500", "140239.682500", "140241.172500", "140242.662500", "140244.152500", "140245.642500", "140247.132500", "140248.622500", "140250.112500", "140251.602500", "140253.092500", "140254.582500", "140256.072500", "140257.562500", "140259.052500", "140300.542500", "140302.032500", "140303.522500", "140305.012500", "140306.502500", "140307.992500", "140309.482500", "140310.972500", "140312.462500", "140313.952500", "140315.442500", "140316.932500", "140318.422500", "140319.912500", "140321.402500", "140322.892500", "140324.382500", "140325.872500", "140327.362500", "140328.852500", "140330.342500", "140331.832500", "140333.322500", "140334.812500", "140336.302500", "140337.792500", "140339.282500", "140340.772500", "140342.262500", "140343.752500", "140345.242500", "140346.732500", "140348.222500", "140349.712500", "140351.202500", "140352.692500", "140354.182500", "140355.672500", "140357.162500", "140358.652500", "140400.142500", "140401.632500", "140403.122500", "140404.612500", "140406.102500", "140407.592500", "140409.082500", "140410.572500", "140412.062500", "140413.552500", "140415.042500", "140416.532500", "140418.022500", "140419.512500", "140421.002500", "140422.492500", "140423.982500", "140425.472500", "140426.962500", "140428.452500", "140429.942500", "140431.432500", "140432.922500", "140434.412500", "140435.902500", "140437.392500", "140438.882500", "140440.372500", "140441.862500", "140443.352500", "140444.842500", "140446.332500", "140447.822500", "140449.312500", "140450.802500", "140452.292500", "140453.782500", "140455.272500", "140456.762500", "140458.252500", "140459.742500", "140501.232500", "140502.722500", "140504.212500", "140505.702500", "140507.192500", "140508.682500", "140510.172500", "140511.662500", "140513.152500", "140514.642500", "140516.132500", "140517.622500", "140519.112500", "140520.602500", "140522.092500", "140523.582500", "140525.072500", "140526.562500", "140528.052500", "140529.542500", "140531.032500", "140532.522500", "140534.012500", "140535.502500", "140536.992500", "140538.482500", "140539.972500", "140541.462500", "140542.952500", "140544.442500", "140545.932500", "140547.422500", "140548.912500", "140550.402500", "140551.892500", "140553.382500", "140554.872500", "140556.362500", "140557.852500", "140559.342500", "140600.832500", "140602.322500", "140603.812500", "140605.302500", "140606.792500", "140608.282500", "140609.772500", "140611.262500", "140612.752500", "140614.242500", "140615.732500", "140617.222500", "140618.712500", "140620.202500", "140621.692500", "140623.182500", "140624.672500", "140626.162500", "140627.652500", "140629.142500", "140630.632500", "140632.122500", "140633.612500", "140635.102500", "140636.592500", "140638.082500", "140639.572500", "140641.062500", "140642.552500", "140644.042500", "140645.532500", "140647.022500", "140648.512500", "140650.002500", "140651.492500", "140652.982500", "140654.472500", "140655.962500", "140657.452500", "140658.942500", "140700.432500", "140701.922500", "140703.412500", "140704.902500", "140706.392500", "140707.882500", "140709.372500", "140710.862500", "140712.352500", "140713.842500", "140715.332500", "140716.822500", "140718.312500", "140719.802500", "140721.292500", "140722.782500", "140724.272500", "140725.762500", "140727.252500", "140728.742500", "140730.232500", "140731.722500", "140733.212500", "140734.702500", "140736.192500", "140737.682500", "140739.172500", "140740.662500", "140742.152500", "140743.642500", "140745.132500", "140746.622500", "140748.112500", "140749.602500", "140751.092500", "140752.582500", "140754.072500", "140755.562500", "140757.052500", "140758.542500", "140800.032500", "140801.522500", "140803.012500", "140804.502500", "140805.992500", "140807.482500", "140808.972500", "140810.462500", "140811.952500", "140813.442500", "140814.932500", "140816.422500", "140817.912500", "140819.402500", "140820.892500", "140822.382500", "140823.872500", "140825.362500", "140826.852500", "140828.342500", "140829.832500", "140831.322500", "140832.812500", "140834.302500", "140835.792500", "140837.282500", "140838.772500", "140840.262500", "140841.752500", "140843.242500", "140844.732500", "140846.222500"],
      "ContentTime": ["135706.060000", "135706.065000", "135706.068000", "135706.071000", "135706.080000", "135706.084000", "135706.086000", "135706.089000", "135706.098000", "135706.101000", "135706.113000", "135706.116000", "135706.118000", "135706.122000", "135706.124000", "135706.127000", "135706.130000", "135706.133000", "135706.136000", "135706.139000", "135706.142000", "135706.145000", "135706.147000", "135706.150000", "135726.030000", "135726.033000", "135726.036000", "135726.039000", "135726.042000", "135726.044000", "135726.047000", "135726.050000", "135726.053000", "135726.056000", "135726.059000", "135726.061000", "135726.064000", "135726.067000", "135726.070000", "135726.073000", "135726.076000", "135726.079000", "135726.082000", "135726.084000", "135746.030000", "135746.033000", "135746.036000", "135746.038000", "135746.041000", "135746.044000", "135746.047000", "135746.050000", "135746.053000", "135746.056000", "135746.059000", "135746.061000", "135746.064000", "135746.067000", "135746.076000", "135746.079000", "135746.082000", "135746.085000", "135746.087000", "135746.090000", "135806.031000", "135806.034000", "135806.037000", "135806.040000", "135806.043000", "135806.045000", "135806.048000", "135806.051000", "135806.054000", "135806.057000", "135806.060000", "135806.063000", "135806.066000", "135806.069000", "135806.071000", "135806.074000", "135806.077000", "135806.080000", "135806.083000", "135806.086000", "135826.031000", "135826.034000", "135826.037000", "135826.039000", "135826.043000", "135826.045000", "135826.048000", "135826.051000", "135826.054000", "135826.057000", "135826.060000", "135826.063000", "135826.066000", "135826.068000", "135826.071000", "135826.074000", "135826.077000", "135826.080000", "135826.083000", "135826.086000", "135906.030000", "135906.033000", "135906.036000", "135906.039000", "135906.042000", "135906.045000", "135906.058000", "135906.060000", "135906.063000", "135906.066000", "135906.069000", "135906.072000", "135906.090000", "135906.093000", "135906.096000", "135906.099000", "135906.105000", "135906.108000", "135906.111000", "135906.114000", "135906.117000", "135906.120000", "135906.123000", "135906.125000", "135906.128000", "135906.131000", "135906.134000", "135906.137000", "135906.140000", "135906.143000", "135946.030000", "135946.033000", "135946.036000", "135946.039000", "135946.042000", "135946.044000", "135946.047000", "135946.050000", "135946.053000", "135946.056000", "135946.059000", "135946.062000", "135946.065000", "135946.068000", "135946.070000", "135946.073000", "135946.076000", "135946.079000", "135946.082000", "135946.085000", "135946.088000", "135946.091000", "135946.094000", "135946.097000", "135946.100000", "135946.102000", "135946.105000", "140026.031000", "140026.034000", "140026.037000", "140026.040000", "140026.043000", "140026.046000", "140026.048000", "140026.051000", "140026.054000", "140026.057000", "140026.060000", "140026.063000", "140026.066000", "140026.069000", "140026.072000", "140026.075000", "140026.077000", "140026.080000", "140026.083000", "140026.086000", "140026.089000", "140026.092000", "140026.095000", "140026.098000", "140026.101000", "140026.104000", "140026.106000", "140106.031000", "140106.034000", "140106.037000", "140106.040000", "140106.043000", "140106.046000", "140106.048000", "140106.051000", "140106.063000", "140106.065000", "140106.068000", "140106.071000", "140106.074000", "140106.077000", "140106.080000", "140106.083000", "140106.086000", "140106.090000", "140106.093000", "140106.096000", "140106.099000", "140106.102000", "140106.105000", "140106.108000", "140106.111000", "140106.114000", "140146.030000", "140146.033000", "140146.036000", "140146.039000", "140146.042000", "140146.045000", "140146.047000", "140146.050000", "140146.053000", "140146.056000", "140146.059000", "140146.062000", "140146.065000", "140146.068000", "140146.071000", "140146.074000", "140146.076000", "140146.079000", "140146.082000", "140146.085000", "140146.088000", "140146.091000", "140146.094000", "140146.097000", "140146.100000", "140146.102000", "140146.105000", "140226.030000", "140226.033000", "140226.036000", "140226.039000", "140226.042000", "140226.045000", "140226.048000", "140226.051000", "140226.053000", "140226.056000", "140226.059000", "140226.062000", "140226.065000", "140226.068000", "140226.071000", "140226.074000", "140226.077000", "140226.079000", "140226.082000", "140226.085000", "140226.088000", "140226.091000", "140226.094000", "140226.097000", "140226.110000", "140226.113000", "140226.116000", "140306.031000", "140306.034000", "140306.037000", "140306.040000", "140306.043000", "140306.046000", "140306.049000", "140306.051000", "140306.054000", "140306.057000", "140306.060000", "140306.063000", "140306.066000", "140306.069000", "140306.072000", "140306.075000", "140306.077000", "140306.080000", "140306.083000", "140306.086000", "140306.089000", "140306.092000", "140306.095000", "140306.098000", "140306.100000", "140306.103000", "140306.106000", "140346.030000", "140346.033000", "140346.036000", "140346.039000", "140346.042000", "140346.045000", "140346.048000", "140346.051000", "140346.053000", "140346.057000", "140346.059000", "140346.062000", "140346.065000", "140346.068000", "140346.071000", "140346.074000", "140346.076000", "140346.083000", "140346.101000", "140346.104000", "140346.107000", "140346.110000", "140346.113000", "140346.116000", "140346.119000", "140346.126000", "140346.129000", "140426.030000", "140426.033000", "140426.036000", "140426.039000", "140426.042000", "140426.045000", "140426.047000", "140426.050000", "140426.053000", "140426.056000", "140426.059000", "140426.062000", "140426.065000", "140426.068000", "140426.071000", "140426.073000", "140426.076000", "140426.079000", "140426.082000", "140426.085000", "140426.088000", "140426.091000", "140426.094000", "140426.096000", "140426.099000", "140426.102000", "140426.105000", "140506.031000", "140506.034000", "140506.037000", "140506.044000", "140506.047000", "140506.050000", "140506.053000", "140506.056000", "140506.059000", "140506.062000", "140506.064000", "140506.067000", "140506.070000", "140506.073000", "140506.076000", "140506.079000", "140506.082000", "140506.085000", "140506.088000", "140506.091000", "140506.094000", "140506.097000", "140506.099000", "140506.102000", "140506.105000", "140506.108000", "140506.111000", "140546.031000", "140546.034000", "140546.037000", "140546.040000", "140546.043000", "140546.046000", "140546.049000", "140546.051000", "140546.054000", "140546.057000", "140546.060000", "140546.063000", "140546.067000", "140546.070000", "140546.073000", "140546.076000", "140546.079000", "140546.082000", "140546.085000", "140546.087000", "140546.090000", "140546.093000", "140546.096000", "140546.099000", "140546.102000", "140546.105000", "140626.030000", "140626.033000", "140626.036000", "140626.039000", "140626.042000", "140626.045000", "140626.047000", "140626.050000", "140626.053000", "140626.056000", "140626.059000", "140626.062000", "140626.065000", "140626.068000", "140626.071000", "140626.073000", "140626.076000", "140626.079000", "140626.082000", "140626.085000", "140626.088000", "140626.091000", "140626.094000", "140626.097000", "140626.100000", "140626.102000", "140626.105000", "140706.031000", "140706.034000", "140706.037000", "140706.040000", "140706.043000", "140706.046000", "140706.049000", "140706.052000", "140706.054000", "140706.057000", "140706.060000", "140706.063000", "140706.066000", "140706.069000", "140706.072000", "140706.075000", "140706.078000", "140706.080000", "140706.083000", "140706.086000", "140706.089000", "140706.092000", "140706.095000", "140706.098000", "140706.101000", "140706.104000", "140706.107000", "140746.031000", "140746.034000", "140746.037000", "140746.040000", "140746.043000", "140746.046000", "140746.049000", "140746.052000", "140746.054000", "140746.057000", "140746.060000", "140746.063000", "140746.066000", "140746.069000", "140746.072000", "140746.075000", "140746.078000", "140746.081000", "140746.083000", "140746.086000", "140746.089000", "140746.092000", "140746.095000", "140746.098000", "140746.101000", "140746.104000", "140746.106000", "140826.051000", "140826.055000", "140826.057000", "140826.060000", "140826.063000", "140826.066000", "140826.069000", "140826.072000", "140826.075000", "140826.078000", "140826.081000", "140826.083000", "140826.086000", "140826.089000", "140826.092000", "140826.095000", "140826.098000", "140826.101000", "140826.104000", "140826.107000", "140826.109000", "140826.112000", "140826.115000", "140826.118000", "140826.121000", "140826.124000", "140826.127000", "140848.203000", "140848.207000", "140848.210000", "140848.213000", "140848.216000", "140848.219000", "140848.222000", "140848.225000", "140848.228000", "140848.230000", "140848.233000", "140848.236000", "140848.239000", "140848.242000", "140848.245000"],
