{
  "AcquisitionMatrixPE": 104,
  "AcquisitionNumber": 1,
  "AcquisitionTime": "14:09:24.132500",
  "BandwidthPerPixelPhaseEncode": 17.17,
  "BaseResolution": 104,
  "BodyPartExamined": "BRAIN",
  "CoilString": "HC1-7;NC1_2",
  "ConsistencyInfo": "N4_VE11C_LATEST_20160120",
  "ConversionSoftware": "dcm2niix",
  "ConversionSoftwareVersion": "v1.0.20190902",
  "DerivedVendorReportedEchoSpacing": 0.000560011,
  "DeviceSerialNumber": "167006",
  "DwellTime": 2.1e-06,
  "EchoTime": 0.037,
  "EchoTrainLength": 104,
  "EffectiveEchoSpacing": 0.000560011,
  "FlipAngle": 52,
  "ImageComments": "Unaliased_MB4_PE3_LB",
  "ImageOrientationPatientDICOM": [0.999427, -0.0332706, 0.00621548, 0.033329, 0.935437, -0.35192],
  "ImageType": [
    "ORIGINAL",
    "PRIMARY",
    "M",
    "MB",
    "ND",
    "MOSAIC"
],
  "ImagingFrequency": 123.259,
  "InPlanePhaseEncodingDirectionDICOM": "COL",
  "InstitutionAddress": "Chemin_Queen-Mary_4565_Montreal_District_CA_H3W_1W5",
  "InstitutionName": "IUGM",
  "InstitutionalDepartmentName": "Department",
  "MRAcquisitionType": "2D",
  "MagneticFieldStrength": 3,
  "Manufacturer": "Siemens",
  "ManufacturersModelName": "Prisma_fit",
  "Modality": "MR",
  "MultibandAccelerationFactor": 4,
  "PartialFourier": 1,
  "PatientPosition": "HFS",
  "PercentPhaseFOV": 100,
  "PhaseEncodingDirection": "j",
  "PhaseEncodingSteps": 104,
  "PhaseResolution": 1,
  "PixelBandwidth": 2290,
  "ProcedureStepDescription": "games_shinobi",
  "ProtocolName": "func_task-shinobi_run-4",
  "PulseSequenceDetails": "%CustomerSeq%_cmrr_mbep2d_bold",
  "ReceiveCoilActiveElements": "HC1-7;NC1,2",
  "ReceiveCoilName": "HeadNeck_64",
  "ReconMatrixPE": 104,
  "RepetitionTime": 1.49,
  "SAR": 0.0294334,
  "ScanOptions": "FS",
  "ScanningSequence": "EP",
  "SequenceName": "epfid2d1_104",
  "SequenceVariant": "SK_SS",
  "SeriesDescription": "func_task-shinobi_run-4",
  "SeriesNumber": 15,
  "ShimSetting": [637, -7266, -8854, 558, 21, -238, -77, -13],
  "SliceThickness": 2,
  "SliceTiming": [0, 0.785, 0.1, 0.8825, 0.1975, 0.98, 0.295, 1.08, 0.3925, 1.1775, 0.49, 1.275, 0.59, 1.3725, 0.6875, 0, 0.785, 0.1, 0.8825, 0.1975, 0.98, 0.295, 1.08, 0.3925, 1.1775, 0.49, 1.275, 0.59, 1.3725, 0.6875, 0, 0.785, 0.1, 0.8825, 0.1975, 0.98, 0.295, 1.08, 0.3925, 1.1775, 0.49, 1.275, 0.59, 1.3725, 0.6875, 0, 0.785, 0.1, 0.8825, 0.1975, 0.98, 0.295, 1.08, 0.3925, 1.1775, 0.49, 1.275, 0.59, 1.3725, 0.6875],
  "SoftwareVersions": "syngo_MR_E11",
  "SpacingBetweenSlices": 2,
  "StationName": "MRC35049",
  "TaskName": "shinobi",
  "TotalReadoutTime": 0.0576811,
  "TxRefAmp": 217.303,
  "WipMemBlock": "64cfe536-d9b4-4555-87f4-c62b32e9cb59||Sequence: R016 ve11c/master r/e634e98; Dec 19 2017 11:00:25 by eja",
  "dcmmeta_affine": [
    [-1.998854160308838, 0.06665798276662827, -0.011788804084062576, 103.092041015625],
    [0.06654122471809387, 1.870873212814331, -0.7038505673408508, -66.88230895996094],
    [0.012430950999259949, 0.7038394808769226, 1.8720190525054932, -70.08063507080078],
    [0.0, 0.0, 0.0, 1.0]
],
  "dcmmeta_reorient_transform": [
    [0.0, -1.0, 0.0, 103.0],
    [1.0, 0.0, 0.0, 0.0],
    [0.0, 0.0, 1.0, 0.0],
    [0.0, 0.0, 0.0, 1.0]
],
  "dcmmeta_shape": [104, 104, 60, 517],
  "dcmmeta_slice_dim": 2,
  "dcmmeta_version": 0.6,
  "global": {
    "const": {
      "AcquisitionMatrix": [104, 0, 0, 104],
      "AngioFlag": "N",
      "BitsAllocated": 16,
      "BitsStored": 16,
      "BodyPartExamined": "BRAIN",
      "Columns": 832,
      "EchoNumbers": 1,
      "EchoTime": 37.0,
      "EchoTrainLength": 104,
      "FlipAngle": 52.0,
      "HighBit": 15,
      "ImageOrientationPatient": [0.99942705300299, -0.0332706114825, 0.00621547563266, 0.03332899268353, 0.93543661854389, -0.3519197507016],
      "ImagePositionPatient": [-861.80421275807, -782.59448657316, 254.08754285589],
      "ImageType": [
        "ORIGINAL",
        "PRIMARY",
        "M",
        "MB",
        "ND",
        "MOSAIC"
],
      "ImagedNucleus": "1H",
      "ImagingFrequency": 123.259014,
      "InPlanePhaseEncodingDirection": "COL",
      "MRAcquisitionType": "2D",
      "MagneticFieldStrength": 3.0,
      "Manufacturer": "SIEMENS",
      "ManufacturerModelName": "Prisma_fit",
      "Modality": "MR",
      "NumberOfAverages": 1.0,
      "NumberOfPhaseEncodingSteps": 104,
      "PercentPhaseFieldOfView": 100.0,
      "PercentSampling": 100.0,
      "PerformedProcedureStepStartTime": "124703.575000",
      "PhotometricInterpretation": "MONOCHROME2",
      "PixelBandwidth": 2290.0,
      "PixelRepresentation": 0,
      "PixelSpacing": [2.0, 2.0],
      "ProtocolName": "func_task-shinobi_run-4",
      "RepetitionTime": 1490.0,
      "Rows": 832,
      "SAR": 0.02943343317913,
      "SamplesPerPixel": 1,
      "ScanOptions": "FS",
      "ScanningSequence": "EP",
      "SequenceName": "epfid2d1_104",
      "SequenceVariant": [
        "SK",
        "SS"
],
      "SeriesDescription": "func_task-shinobi_run-4",
      "SeriesNumber": 15,
      "SeriesTime": "141051.439000",
      "SliceLocation": -42.666236269524,
      "SliceThickness": 2.0,
      "SmallestImagePixelValue": 0,
      "SoftwareVersions": "syngo MR E11",
      "SpacingBetweenSlices": 2.0000000205438,
      "SpecificCharacterSet": "ISO_IR 100",
      "StudyID": "1",
      "StudyTime": "124703.503000",
      "TransmitCoilName": "Body",
      "VariableFlipAngleFlag": "N",
      "WindowCenterWidthExplanation": "Algo1",
      "dBdt": 0.0},
    "slices": {}
  },
  "time": {
    "samples": {
      "AcquisitionNumber": [1, 2, 3, 4, 5, 6, 7, 8, 9, 10, 11, 12, 13, 14, 15, 16, 17, 18, 19, 20, 21, 22, 23, 24, 25, 26, 27, 28, 29, 30, 31, 32, 33, 34, 35, 36, 37, 38, 39, 40, 41, 42, 43, 44, 45, 46, 47, 48, 49, 50, 51, 52, 53, 54, 55, 56, 57, 58, 59, 60, 61, 62, 63, 64, 65, 66, 67, 68, 69, 70, 71, 72, 73, 74, 75, 76, 77, 78, 79, 80, 81, 82, 83, 84, 85, 86, 87, 88, 89, 90, 91, 92, 93, 94, 95, 96, 97, 98, 99, 100, 101, 102, 103, 104, 105, 106, 107, 108, 109, 110, 111, 112, 113, 114, 115, 116, 117, 118, 119, 120, 121, 122, 123, 124, 125, 126, 127, 128, 129, 130, 131, 132, 133, 134, 135, 136, 137, 138, 139, 140, 141, 142, 143, 144, 145, 146, 147, 148, 149, 150, 151, 152, 153, 154, 155, 156, 157, 158, 159, 160, 161, 162, 163, 164, 165, 166, 167, 168, 169, 170, 171, 172, 173, 174, 175, 176, 177, 178, 179, 180, 181, 182, 183, 184, 185, 186, 187, 188, 189, 190, 191, 192, 193, 194, 195, 196, 197, 198, 199, 200, 201, 202, 203, 204, 205, 206, 207, 208, 209, 210, 211, 212, 213, 214, 215, 216, 217, 218, 219, 220, 221, 222, 223, 224, 225, 226, 227, 228, 229, 230, 231, 232, 233, 234, 235, 236, 237, 238, 239, 240, 241, 242, 243, 244, 245, 246, 247, 248, 249, 250, 251, 252, 253, 254, 255, 256, 257, 258, 259, 260, 261, 262, 263, 264, 265, 266, 267, 268, 269, 270, 271, 272, 273, 274, 275, 276, 277, 278, 279, 280, 281, 282, 283, 284, 285, 286, 287, 288, 289, 290, 291, 292, 293, 294, 295, 296, 297, 298, 299, 300, 301, 302, 303, 304, 305, 306, 307, 308, 309, 310, 311, 312, 313, 314, 315, 316, 317, 318, 319, 320, 321, 322, 323, 324, 325, 326, 327, 328, 329, 330, 331, 332, 333, 334, 335, 336, 337, 338, 339, 340, 341, 342, 343, 344, 345, 346, 347, 348, 349, 350, 351, 352, 353, 354, 355, 356, 357, 358, 359, 360, 361, 362, 363, 364, 365, 366, 367, 368, 369, 370, 371, 372, 373, 374, 375, 376, 377, 378, 379, 380, 381, 382, 383, 384, 385, 386, 387, 388, 389, 390, 391, 392, 393, 394, 395, 396, 397, 398, 399, 400, 401, 402, 403, 404, 405, 406, 407, 408, 409, 410, 411, 412, 413, 414, 415, 416, 417, 418, 419, 420, 421, 422, 423, 424, 425, 426, 427, 428, 429, 430, 431, 432, 433, 434, 435, 436, 437, 438, 439, 440, 441, 442, 443, 444, 445, 446, 447, 448, 449, 450, 451, 452, 453, 454, 455, 456, 457, 458, 459, 460, 461, 462, 463, 464, 465, 466, 467, 468, 469, 470, 471, 472, 473, 474, 475, 476, 477, 478, 479, 480, 481, 482, 483, 484, 485, 486, 487, 488, 489, 490, 491, 492, 493, 494, 495, 496, 497, 498, 499, 500, 501, 502, 503, 504, 505, 506, 507, 508, 509, 510, 511, 512, 513, 514, 515, 516, 517],
      "AcquisitionTime": ["140924.132500", "140925.622500", "140927.112500", "140928.602500", "140930.092500", "140931.582500", "140933.072500", "140934.562500", "140936.052500", "140937.542500", "140939.032500", "140940.522500", "140942.012500", "140943.502500", "140944.992500", "140946.482500", "140947.972500", "140949.462500", "140950.952500", "140952.442500", "140953.932500", "140955.422500", "140956.912500", "140958.402500", "140959.892500", "141001.382500", "141002.872500", "141004.362500", "141005.852500", "141007.342500", "141008.832500", "141010.322500", "141011.812500", "141013.302500", "141014.792500", "141016.282500", "141017.772500", "141019.262500", "141020.752500", "141022.242500", "141023.732500", "141025.222500", "141026.712500", "141028.202500", "141029.692500", "141031.182500", "141032.672500", "141034.162500", "141035.652500", "141037.142500", "141038.632500", "141040.122500", "141041.612500", "141043.102500", "141044.592500", "141046.082500", "141047.572500", "141049.062500", "141050.552500", "141052.042500", "141053.532500", "141055.022500", "141056.512500", "141058.002500", "141059.492500", "141100.982500", "141102.472500", "141103.962500", "141105.452500", "141106.942500", "141108.432500", "141109.922500", "141111.412500", "141112.902500", "141114.392500", "141115.882500", "141117.372500", "141118.862500", "141120.352500", "141121.842500", "141123.332500", "141124.822500", "141126.312500", "141127.802500", "141129.292500", "141130.782500", "141132.272500", "141133.762500", "141135.252500", "141136.742500", "141138.232500", "141139.722500", "141141.212500", "141142.702500", "141144.192500", "141145.682500", "141147.172500", "141148.662500", "141150.152500", "141151.642500", "141153.132500", "141154.622500", "141156.112500", "141157.602500", "141159.092500", "141200.582500", "141202.072500", "141203.562500", "141205.052500", "141206.542500", "141208.032500", "141209.522500", "141211.012500", "141212.502500", "141213.992500", "141215.482500", "141216.972500", "141218.462500", "141219.952500", "141221.442500", "141222.932500", "141224.422500", "141225.912500", "141227.402500", "141228.892500", "141230.382500", "141231.872500", "141233.362500", "141234.852500", "141236.342500", "141237.832500", "141239.322500", "141240.812500", "141242.302500", "141243.792500", "141245.282500", "141246.772500", "141248.262500", "141249.752500", "141251.242500", "141252.732500", "141254.222500", "141255.712500", "141257.202500", "141258.692500", "141300.182500", "141301.672500", "141303.162500", "141304.652500", "141306.142500", "141307.632500", "141309.122500", "141310.612500", "141312.102500", "141313.592500", "141315.082500", "141316.572500", "141318.062500", "141319.552500", "141321.042500", "141322.532500", "141324.022500", "141325.512500", "141327.002500", "141328.492500", "141329.982500", "141331.472500", "141332.962500", "141334.452500", "141335.942500", "141337.432500", "141338.922500", "141340.412500", "141341.902500", "141343.392500", "141344.882500", "141346.372500", "141347.862500", "141349.352500", "141350.842500", "141352.332500", "141353.822500", "141355.312500", "141356.802500", "141358.292500", "141359.782500", "141401.272500", "141402.762500", "141404.252500", "141405.742500", "141407.232500", "141408.722500", "141410.212500", "141411.702500", "141413.192500", "141414.682500", "141416.172500", "141417.662500", "141419.152500", "141420.642500", "141422.132500", "141423.622500", "141425.112500", "141426.602500", "141428.092500", "141429.582500", "141431.072500", "141432.562500", "141434.052500", "141435.542500", "141437.032500", "141438.522500", "141440.012500", "141441.502500", "141442.992500", "141444.482500", "141445.972500", "141447.462500", "141448.952500", "141450.442500", "141451.932500", "141453.422500", "141454.912500", "141456.402500", "141457.892500", "141459.382500", "141500.872500", "141502.362500", "141503.852500", "141505.342500", "141506.832500", "141508.322500", "141509.812500", "141511.302500", "141512.792500", "141514.282500", "141515.772500", "141517.262500", "141518.752500", "141520.242500", "141521.732500", "141523.222500", "141524.712500", "141526.202500", "141527.692500", "141529.182500", "141530.672500", "141532.162500", "141533.652500", "141535.142500", "141536.632500", "141538.122500", "141539.612500", "141541.102500", "141542.592500", "141544.082500", "141545.572500", "141547.062500", "141548.552500", "141550.042500", "141551.532500", "141553.022500", "141554.512500", "141556.002500", "141557.492500", "141558.982500", "141600.472500", "141601.962500", "141603.452500", "141604.942500", "141606.432500", "141607.922500", "141609.412500", "141610.902500", "141612.392500", "141613.882500", "141615.372500", "141616.862500", "141618.352500", "141619.842500", "141621.332500", "141622.822500", "141624.312500", "141625.802500", "141627.292500", "141628.782500", "141630.272500", "141631.762500", "141633.252500", "141634.742500", "141636.232500", "141637.722500", "141639.212500", "141640.702500", "141642.192500", "141643.682500", "141645.172500", "141646.662500", "141648.152500", "141649.642500", "141651.132500", "141652.622500", "141654.112500", "141655.602500", "141657.092500", "141658.582500", "141700.072500", "141701.562500", "141703.052500", "141704.542500", "141706.032500", "141707.522500", "141709.012500", "141710.502500", "141711.992500", "141713.482500", "141714.972500", "141716.462500", "141717.952500", "141719.442500", "141720.932500", "141722.422500", "141723.912500", "141725.402500", "141726.892500", "141728.382500", "141729.872500", "141731.362500", "141732.852500", "141734.342500", "141735.832500", "141737.322500", "141738.812500", "141740.302500", "141741.792500", "141743.282500", "141744.772500", "141746.262500", "141747.752500", "141749.242500", "141750.732500", "141752.222500", "141753.712500", "141755.202500", "141756.692500", "141758.182500", "141759.672500", "141801.162500", "141802.652500", "141804.142500", "141805.632500", "141807.122500", "141808.612500", "141810.102500", "141811.592500", "141813.082500", "141814.572500", "141816.062500", "141817.552500", "141819.042500", "141820.532500", "141822.022500", "141823.512500", "141825.002500", "141826.492500", "141827.982500", "141829.472500", "141830.962500", "141832.452500", "141833.942500", "141835.432500", "141836.922500", "141838.412500", "141839.902500", "141841.392500", "141842.882500", "141844.372500", "141845.862500", "141847.352500", "141848.842500", "141850.332500", "141851.822500", "141853.312500", "141854.802500", "141856.292500", "141857.782500", "141859.272500", "141900.762500", "141902.252500", "141903.742500", "141905.232500", "141906.722500", "141908.212500", "141909.702500", "141911.192500", "141912.682500", "141914.172500", "141915.662500", "141917.152500", "141918.642500", "141920.132500", "141921.622500", "141923.112500", "141924.602500", "141926.092500", "141927.582500", "141929.072500", "141930.562500", "141932.052500", "141933.542500", "141935.032500", "141936.522500", "141938.012500", "141939.502500", "141940.992500", "141942.482500", "141943.972500", "141945.462500", "141946.952500", "141948.442500", "141949.932500", "141951.422500", "141952.912500", "141954.402500", "141955.892500", "141957.382500", "141958.872500", "142000.362500", "142001.852500", "142003.342500", "142004.832500", "142006.322500", "142007.812500", "142009.302500", "142010.792500", "142012.282500", "142013.772500", "142015.262500", "142016.752500", "142018.242500", "142019.732500", "142021.222500", "142022.712500", "142024.202500", "142025.692500", "142027.182500", "142028.672500", "142030.162500", "142031.652500", "142033.142500", "142034.632500", "142036.122500", "142037.612500", "142039.102500", "142040.592500", "142042.082500", "142043.572500", "142045.062500", "142046.552500", "142048.042500", "142049.532500", "142051.022500", "142052.512500", "142054.002500", "142055.492500", "142056.982500", "142058.472500", "142059.962500", "142101.452500", "142102.942500", "142104.432500", "142105.922500", "142107.412500", "142108.902500", "142110.392500", "142111.882500", "142113.372500", "142114.862500", "142116.352500", "142117.842500", "142119.332500", "142120.822500", "142122.312500", "142123.802500", "142125.292500", "142126.782500", "142128.272500", "142129.762500", "142131.252500", "142132.742500", "142134.232500", "142135.722500", "142137.212500", "142138.702500", "142140.192500", "142141.682500", "142143.172500", "142144.662500", "142146.152500", "142147.642500", "142149.132500", "142150.622500", "142152.112500", "142153.602500", "142155.092500", "142156.582500", "142158.072500", "142159.562500", "142201.052500", "142202.542500", "142204.032500", "142205.522500", "142207.012500", "142208.502500", "142209.992500", "142211.482500", "142212.972500"],
      "ContentTime": ["141051.441000", "141051.445000", "141051.448000", "141051.450000", "141051.453000", "141051.456000", "141051.459000", "141051.462000", "141051.465000", "141051.468000", "141051.471000", "141051.474000", "141051.476000", "141051.479000", "141051.482000", "141051.485000", "141051.494000", "141051.497000", "141051.506000", "141051.509000", "141051.512000", "141051.515000", "141051.518000", "141051.520000", "141051.523000", "141051.526000", "141051.529000", "141051.532000", "141051.535000", "141051.537000", "141051.540000", "141051.543000", "141051.546000", "141111.411000", "141111.414000", "141111.417000", "141111.419000", "141111.422000", "141111.425000", "141111.428000", "141111.431000", "141111.434000", "141111.437000", "141111.440000", "141111.443000", "141111.446000", "141111.448000", "141111.451000", "141111.454000", "141111.457000", "141111.460000", "141111.463000", "141111.466000", "141131.411000", "141131.414000", "141131.417000", "141131.420000", "141131.422000", "141131.425000", "141131.428000", "141131.431000", "141131.434000", "141131.437000", "141131.440000", "141131.443000", "141131.446000", "141131.448000", "141131.451000", "141131.454000", "141131.457000", "141131.460000", "141131.463000", "141131.466000", "141131.468000", "141151.411000", "141151.415000", "141151.417000", "141151.420000", "141151.423000", "141151.426000", "141151.429000", "141151.432000", "141151.435000", "141151.438000", "141151.441000", "141151.443000", "141151.446000", "141151.449000", "141151.452000", "141151.455000", "141151.458000", "141151.461000", "141151.463000", "141151.466000", "141231.410000", "141231.413000", "141231.416000", "141231.419000", "141231.422000", "141231.424000", "141231.427000", "141231.430000", "141231.433000", "141231.436000", "141231.439000", "141231.442000", "141231.445000", "141231.448000", "141231.450000", "141231.454000", "141231.456000", "141231.459000", "141231.462000", "141231.465000", "141231.468000", "141231.471000", "141231.474000", "141231.477000", "141231.479000", "141231.482000", "141231.485000", "141231.494000", "141231.497000", "141231.499000", "141231.502000", "141311.410000", "141311.413000", "141311.416000", "141311.419000", "141311.422000", "141311.425000", "141311.428000", "141311.431000", "141311.433000", "141311.436000", "141311.439000", "141311.442000", "141311.445000", "141311.448000", "141311.451000", "141311.454000", "141311.457000", "141311.474000", "141311.477000", "141311.480000", "141311.482000", "141311.485000", "141311.488000", "141311.491000", "141311.494000", "141311.497000", "141311.500000", "141351.411000", "141351.414000", "141351.417000", "141351.420000", "141351.423000", "141351.426000", "141351.429000", "141351.432000", "141351.435000", "141351.438000", "141351.440000", "141351.443000", "141351.446000", "141351.449000", "141351.452000", "141351.455000", "141351.458000", "141351.461000", "141351.464000", "141351.467000", "141351.469000", "141351.472000", "141351.475000", "141351.478000", "141351.481000", "141351.484000", "141351.487000", "141431.410000", "141431.413000", "141431.416000", "141431.419000", "141431.422000", "141431.424000", "141431.428000", "141431.430000", "141431.433000", "141431.436000", "141431.439000", "141431.442000", "141431.445000", "141431.448000", "141431.451000", "141431.453000", "141431.456000", "141431.459000", "141431.462000", "141431.465000", "141431.468000", "141431.471000", "141431.474000", "141431.477000", "141431.480000", "141431.483000", "141511.410000", "141511.413000", "141511.416000", "141511.419000", "141511.422000", "141511.424000", "141511.428000", "141511.430000", "141511.433000", "141511.436000", "141511.439000", "141511.442000", "141511.445000", "141511.448000", "141511.451000", "141511.454000", "141511.457000", "141511.460000", "141511.463000", "141511.465000", "141511.468000", "141511.471000", "141511.474000", "141511.477000", "141511.480000", "141511.483000", "141511.486000", "141551.411000", "141551.414000", "141551.417000", "141551.420000", "141551.423000", "141551.426000", "141551.429000", "141551.431000", "141551.434000", "141551.437000", "141551.440000", "141551.443000", "141551.446000", "141551.449000", "141551.452000", "141551.454000", "141551.457000", "141551.460000", "141551.463000", "141551.466000", "141551.469000", "141551.472000", "141551.475000", "141551.477000", "141551.480000", "141551.483000", "141551.486000", "141631.411000", "141631.414000", "141631.417000", "141631.420000", "141631.423000", "141631.426000", "141631.428000", "141631.431000", "141631.434000", "141631.437000", "141631.440000", "141631.443000", "141631.446000", "141631.449000", "141631.452000", "141631.455000", "141631.458000", "141631.460000", "141631.463000", "141631.466000", "141631.469000", "141631.472000", "141631.475000", "141631.477000", "141631.480000", "141631.483000", "141631.486000", "141711.410000", "141711.413000", "141711.416000", "141711.419000", "141711.422000", "141711.425000", "141711.427000", "141711.431000", "141711.433000", "141711.436000", "141711.439000", "141711.442000", "141711.445000", "141711.448000", "141711.451000", "141711.454000", "141711.457000", "141711.460000", "141711.463000", "141711.466000", "141711.468000", "141711.471000", "141711.474000", "141711.477000", "141711.480000", "141711.483000", "141711.486000", "141751.410000", "141751.413000", "141751.416000", "141751.419000", "141751.422000", "141751.425000", "141751.428000", "141751.430000", "141751.433000", "141751.436000", "141751.439000", "141751.442000", "141751.445000", "141751.467000", "141751.470000", "141751.473000", "141751.476000", "141751.478000", "141751.482000", "141751.484000", "141751.487000", "141751.490000", "141751.493000", "141751.496000", "141751.499000", "141751.502000", "141751.505000", "141831.411000", "141831.414000", "141831.417000", "141831.420000", "141831.423000", "141831.426000", "141831.429000", "141831.432000", "141831.435000", "141831.438000", "141831.441000", "141831.444000", "141831.447000", "141831.449000", "141831.452000", "141831.455000", "141831.458000", "141831.461000", "141831.464000", "141831.467000", "141831.470000", "141831.473000", "141831.476000", "141831.479000", "141831.481000", "141831.484000", "141911.410000", "141911.413000", "141911.416000", "141911.419000", "141911.422000", "141911.425000", "141911.427000", "141911.430000", "141911.433000", "141911.436000", "141911.439000", "141911.442000", "141911.445000", "141911.448000", "141911.451000", "141911.454000", "141911.457000", "141911.459000", "141911.462000", "141911.465000", "141911.468000", "141911.471000", "141911.474000", "141911.477000", "141911.479000", "141911.482000", "141911.485000", "141951.410000", "141951.413000", "141951.416000", "141951.419000", "141951.422000", "141951.424000", "141951.427000", "141951.430000", "141951.433000", "141951.436000", "141951.439000", "141951.442000", "141951.445000", "141951.448000", "141951.451000", "141951.454000", "141951.457000", "141951.459000", "141951.462000", "141951.465000", "141951.468000", "141951.471000", "141951.474000", "141951.477000", "141951.480000", "141951.483000", "141951.486000", "142031.411000", "142031.414000", "142031.417000", "142031.420000", "142031.423000", "142031.435000", "142031.438000", "142031.441000", "142031.443000", "142031.447000", "142031.449000", "142031.452000", "142031.455000", "142031.458000", "142031.461000", "142031.464000", "142031.467000", "142031.470000", "142031.473000", "142031.476000", "142031.478000", "142031.481000", "142031.484000", "142031.487000", "142031.490000", "142031.493000", "142031.496000", "142111.411000", "142111.414000", "142111.417000", "142111.420000", "142111.423000", "142111.426000", "142111.428000", "142111.431000", "142111.434000", "142111.437000", "142111.440000", "142111.443000", "142111.446000", "142111.449000", "142111.452000", "142111.455000", "142111.465000", "142111.468000", "142111.471000", "142111.473000", "142111.476000", "142111.479000", "142111.482000", "142111.485000", "142111.488000", "142111.491000", "142111.494000", "142151.410000", "142151.413000", "142151.416000", "142151.419000", "142151.422000", "142151.425000", "142151.427000", "142151.430000", "142151.433000", "142151.436000", "142151.439000", "142151.442000", "142151.445000", "142151.448000", "142151.451000", "142151.454000", "142151.457000", "142151.460000", "142151.463000", "142151.466000", "142151.468000", "142151.471000", "142151.474000", "142151.477000", "142151.480000", "142151.483000", "142151.485000", "142215.617000", "142215.620000", "142215.623000", "142215.626000", "142215.629000", "142215.632000", "142215.635000", "142215.638000", "142215.641000", "142215.644000", "142215.647000", "142215.649000", "142215.652000", "142215.655000", "142215.658000", "142215.661000"],
