{
  "AcquisitionMatrixPE": 104,
  "AcquisitionNumber": 1,
  "AcquisitionTime": "09:10:52.785000",
  "BandwidthPerPixelPhaseEncode": 17.17,
  "BaseResolution": 104,
  "BodyPartExamined": "BRAIN",
  "CoilString": "HC1-7;NC1_2",
  "ConsistencyInfo": "N4_VE11C_LATEST_20160120",
  "ConversionSoftware": "dcm2niix",
  "ConversionSoftwareVersion": "v1.0.20190902",
  "DerivedVendorReportedEchoSpacing": 0.000560011,
  "DeviceSerialNumber": "167006",
  "DwellTime": 2.1e-06,
  "EchoTime": 0.037,
  "EchoTrainLength": 104,
  "EffectiveEchoSpacing": 0.000560011,
  "FlipAngle": 52,
  "ImageComments": "Unaliased_MB4_PE3_LB",
  "ImageOrientationPatientDICOM": [0.999553, 0.0241198, 0.0176663, -0.0122125, 0.868742, -0.495114],
  "ImageType": [
    "ORIGINAL",
    "PRIMARY",
    "M",
    "MB",
    "ND",
    "MOSAIC"
],
  "ImagingFrequency": 123.259,
  "InPlanePhaseEncodingDirectionDICOM": "COL",
  "InstitutionAddress": "Chemin_Queen-Mary_4565_Montreal_District_CA_H3W_1W5",
  "InstitutionName": "IUGM",
  "InstitutionalDepartmentName": "Department",
  "MRAcquisitionType": "2D",
  "MagneticFieldStrength": 3,
  "Manufacturer": "Siemens",
  "ManufacturersModelName": "Prisma_fit",
  "Modality": "MR",
  "MultibandAccelerationFactor": 4,
  "PartialFourier": 1,
  "PatientPosition": "HFS",
  "PercentPhaseFOV": 100,
  "PhaseEncodingDirection": "j",
  "PhaseEncodingSteps": 104,
  "PhaseResolution": 1,
  "PixelBandwidth": 2290,
  "ProcedureStepDescription": "games_shinobi",
  "ProtocolName": "func_task-shinobi_run-1",
  "PulseSequenceDetails": "%CustomerSeq%_cmrr_mbep2d_bold",
  "ReceiveCoilActiveElements": "HC1-7;NC1,2",
  "ReceiveCoilName": "HeadNeck_64",
  "ReconMatrixPE": 104,
  "RepetitionTime": 1.49,
  "SAR": 0.0334369,
  "ScanOptions": "FS",
  "ScanningSequence": "EP",
  "SequenceName": "epfid2d1_104",
  "SequenceVariant": "SK_SS",
  "SeriesDescription": "func_task-shinobi_run-1",
  "SeriesNumber": 9,
  "ShimSetting": [626, -7194, -8881, 392, 15, -189, -14, -24],
  "SliceThickness": 2,
  "SliceTiming": [0, 0.785, 0.0975, 0.8825, 0.195, 0.98, 0.295, 1.0775, 0.3925, 1.175, 0.49, 1.275, 0.5875, 1.3725, 0.685, 0, 0.785, 0.0975, 0.8825, 0.195, 0.98, 0.295, 1.0775, 0.3925, 1.175, 0.49, 1.275, 0.5875, 1.3725, 0.685, 0, 0.785, 0.0975, 0.8825, 0.195, 0.98, 0.295, 1.0775, 0.3925, 1.175, 0.49, 1.275, 0.5875, 1.3725, 0.685, 0, 0.785, 0.0975, 0.8825, 0.195, 0.98, 0.295, 1.0775, 0.3925, 1.175, 0.49, 1.275, 0.5875, 1.3725, 0.685],
  "SoftwareVersions": "syngo_MR_E11",
  "SpacingBetweenSlices": 2,
  "StationName": "MRC35049",
  "TaskName": "shinobi",
  "TotalReadoutTime": 0.0576811,
  "TxRefAmp": 246.469,
  "WipMemBlock": "4c5328ea-4166-489d-b26c-c7008f4874d3||Sequence: R016 ve11c/master r/e634e98; Dec 19 2017 11:00:25 by eja",
  "dcmmeta_affine": [
    [-1.9991059303283691, -0.024424906820058823, 0.054579079151153564, 106.79802703857422],
    [-0.04823954030871391, 1.7374838590621948, -0.98935467004776, -49.62031555175781],
    [0.03533268719911575, 0.9902288317680359, 1.7372963428497314, -105.40050506591797],
    [0.0, 0.0, 0.0, 1.0]
],
  "dcmmeta_reorient_transform": [
    [0.0, -1.0, 0.0, 103.0],
    [1.0, 0.0, 0.0, 0.0],
    [0.0, 0.0, 1.0, 0.0],
    [0.0, 0.0, 0.0, 1.0]
],
  "dcmmeta_shape": [104, 104, 60, 427],
  "dcmmeta_slice_dim": 2,
  "dcmmeta_version": 0.6,
  "global": {
    "const": {
      "AcquisitionMatrix": [104, 0, 0, 104],
      "AngioFlag": "N",
      "BitsAllocated": 16,
      "BitsStored": 16,
      "BodyPartExamined": "BRAIN",
      "Columns": 832,
      "EchoNumbers": 1,
      "EchoTime": 37.0,
      "EchoTrainLength": 104,
      "FlipAngle": 52.0,
      "HighBit": 15,
      "ImageOrientationPatient": [0.99955296857236, 0.02411977011396, 0.01766634392922, -0.0122124536122, 0.8687419429935, -0.4951144236039],
      "ImagePositionPatient": [-823.06615309424, -779.34385164696, 344.17526740777],
      "ImageType": [
        "ORIGINAL",
        "PRIMARY",
        "M",
        "MB",
        "ND",
        "MOSAIC"
],
      "ImagedNucleus": "1H",
      "ImagingFrequency": 123.259036,
      "InPlanePhaseEncodingDirection": "COL",
      "MRAcquisitionType": "2D",
      "MagneticFieldStrength": 3.0,
      "Manufacturer": "SIEMENS",
      "ManufacturerModelName": "Prisma_fit",
      "Modality": "MR",
      "NumberOfAverages": 1.0,
      "NumberOfPhaseEncodingSteps": 104,
      "PercentPhaseFieldOfView": 100.0,
      "PercentSampling": 100.0,
      "PerformedProcedureStepStartTime": "085907.686000",
      "PhotometricInterpretation": "MONOCHROME2",
      "PixelBandwidth": 2290.0,
      "PixelRepresentation": 0,
      "PixelSpacing": [2.0, 2.0],
      "ProtocolName": "func_task-shinobi_run-1",
      "RepetitionTime": 1490.0,
      "Rows": 832,
      "SAR": 0.03343694100804,
      "SamplesPerPixel": 1,
      "ScanOptions": "FS",
      "ScanningSequence": "EP",
      "SequenceName": "epfid2d1_104",
      "SequenceVariant": [
        "SK",
        "SS"
],
      "SeriesDescription": "func_task-shinobi_run-1",
      "SeriesNumber": 9,
      "SeriesTime": "091209.347000",
      "SliceLocation": -64.095439511054,
      "SliceThickness": 2.0,
      "SmallestImagePixelValue": 0,
      "SoftwareVersions": "syngo MR E11",
      "SpacingBetweenSlices": 1.9999999927295,
      "SpecificCharacterSet": "ISO_IR 100",
      "StudyID": "1",
      "StudyTime": "085907.508000",
      "TransmitCoilName": "Body",
      "VariableFlipAngleFlag": "N",
      "WindowCenterWidthExplanation": "Algo1",
      "dBdt": 0.0},
    "slices": {}
  },
  "time": {
    "samples": {
      "AcquisitionNumber": [1, 2, 3, 4, 5, 6, 7, 8, 9, 10, 11, 12, 13, 14, 15, 16, 17, 18, 19, 20, 21, 22, 23, 24, 25, 26, 27, 28, 29, 30, 31, 32, 33, 34, 35, 36, 37, 38, 39, 40, 41, 42, 43, 44, 45, 46, 47, 48, 49, 50, 51, 52, 53, 54, 55, 56, 57, 58, 59, 60, 61, 62, 63, 64, 65, 66, 67, 68, 69, 70, 71, 72, 73, 74, 75, 76, 77, 78, 79, 80, 81, 82, 83, 84, 85, 86, 87, 88, 89, 90, 91, 92, 93, 94, 95, 96, 97, 98, 99, 100, 101, 102, 103, 104, 105, 106, 107, 108, 109, 110, 111, 112, 113, 114, 115, 116, 117, 118, 119, 120, 121, 122, 123, 124, 125, 126, 127, 128, 129, 130, 131, 132, 133, 134, 135, 136, 137, 138, 139, 140, 141, 142, 143, 144, 145, 146, 147, 148, 149, 150, 151, 152, 153, 154, 155, 156, 157, 158, 159, 160, 161, 162, 163, 164, 165, 166, 167, 168, 169, 170, 171, 172, 173, 174, 175, 176, 177, 178, 179, 180, 181, 182, 183, 184, 185, 186, 187, 188, 189, 190, 191, 192, 193, 194, 195, 196, 197, 198, 199, 200, 201, 202, 203, 204, 205, 206, 207, 208, 209, 210, 211, 212, 213, 214, 215, 216, 217, 218, 219, 220, 221, 222, 223, 224, 225, 226, 227, 228, 229, 230, 231, 232, 233, 234, 235, 236, 237, 238, 239, 240, 241, 242, 243, 244, 245, 246, 247, 248, 249, 250, 251, 252, 253, 254, 255, 256, 257, 258, 259, 260, 261, 262, 263, 264, 265, 266, 267, 268, 269, 270, 271, 272, 273, 274, 275, 276, 277, 278, 279, 280, 281, 282, 283, 284, 285, 286, 287, 288, 289, 290, 291, 292, 293, 294, 295, 296, 297, 298, 299, 300, 301, 302, 303, 304, 305, 306, 307, 308, 309, 310, 311, 312, 313, 314, 315, 316, 317, 318, 319, 320, 321, 322, 323, 324, 325, 326, 327, 328, 329, 330, 331, 332, 333, 334, 335, 336, 337, 338, 339, 340, 341, 342, 343, 344, 345, 346, 347, 348, 349, 350, 351, 352, 353, 354, 355, 356, 357, 358, 359, 360, 361, 362, 363, 364, 365, 366, 367, 368, 369, 370, 371, 372, 373, 374, 375, 376, 377, 378, 379, 380, 381, 382, 383, 384, 385, 386, 387, 388, 389, 390, 391, 392, 393, 394, 395, 396, 397, 398, 399, 400, 401, 402, 403, 404, 405, 406, 407, 408, 409, 410, 411, 412, 413, 414, 415, 416, 417, 418, 419, 420, 421, 422, 423, 424, 425, 426, 427],
      "AcquisitionTime": ["091052.785000", "091054.275000", "091055.765000", "091057.255000", "091058.745000", "091100.235000", "091101.725000", "091103.215000", "091104.705000", "091106.195000", "091107.685000", "091109.175000", "091110.665000", "091112.155000", "091113.645000", "091115.135000", "091116.625000", "091118.115000", "091119.605000", "091121.095000", "091122.585000", "091124.075000", "091125.565000", "091127.055000", "091128.545000", "091130.035000", "091131.525000", "091133.015000", "091134.505000", "091135.995000", "091137.485000", "091138.975000", "091140.465000", "091141.955000", "091143.445000", "091144.935000", "091146.425000", "091147.915000", "091149.405000", "091150.895000", "091152.385000", "091153.875000", "091155.365000", "091156.855000", "091158.345000", "091159.835000", "091201.325000", "091202.815000", "091204.305000", "091205.795000", "091207.285000", "091208.775000", "091210.265000", "091211.755000", "091213.245000", "091214.735000", "091216.225000", "091217.715000", "091219.205000", "091220.695000", "091222.185000", "091223.675000", "091225.165000", "091226.655000", "091228.145000", "091229.635000", "091231.125000", "091232.615000", "091234.105000", "091235.595000", "091237.085000", "091238.575000", "091240.065000", "091241.555000", "091243.045000", "091244.535000", "091246.025000", "091247.515000", "091249.005000", "091250.495000", "091251.985000", "091253.475000", "091254.965000", "091256.455000", "091257.945000", "091259.435000", "091300.925000", "091302.415000", "091303.905000", "091305.395000", "091306.885000", "091308.375000", "091309.865000", "091311.355000", "091312.845000", "091314.335000", "091315.825000", "091317.315000", "091318.805000", "091320.295000", "091321.785000", "091323.275000", "091324.765000", "091326.255000", "091327.745000", "091329.235000", "091330.725000", "091332.215000", "091333.705000", "091335.195000", "091336.685000", "091338.175000", "091339.665000", "091341.155000", "091342.645000", "091344.135000", "091345.625000", "091347.115000", "091348.605000", "091350.095000", "091351.585000", "091353.075000", "091354.565000", "091356.055000", "091357.545000", "091359.035000", "091400.525000", "091402.015000", "091403.505000", "091404.995000", "091406.485000", "091407.975000", "091409.465000", "091410.955000", "091412.445000", "091413.935000", "091415.425000", "091416.915000", "091418.405000", "091419.895000", "091421.385000", "091422.875000", "091424.365000", "091425.855000", "091427.345000", "091428.835000", "091430.325000", "091431.815000", "091433.305000", "091434.795000", "091436.285000", "091437.775000", "091439.265000", "091440.755000", "091442.245000", "091443.735000", "091445.225000", "091446.715000", "091448.205000", "091449.695000", "091451.185000", "091452.675000", "091454.165000", "091455.655000", "091457.145000", "091458.635000", "091500.125000", "091501.615000", "091503.105000", "091504.595000", "091506.085000", "091507.575000", "091509.065000", "091510.555000", "091512.045000", "091513.535000", "091515.025000", "091516.515000", "091518.005000", "091519.495000", "091520.985000", "091522.475000", "091523.965000", "091525.455000", "091526.945000", "091528.435000", "091529.925000", "091531.415000", "091532.905000", "091534.395000", "091535.885000", "091537.375000", "091538.865000", "091540.355000", "091541.845000", "091543.335000", "091544.825000", "091546.315000", "091547.805000", "091549.295000", "091550.785000", "091552.275000", "091553.765000", "091555.255000", "091556.745000", "091558.235000", "091559.725000", "091601.215000", "091602.705000", "091604.195000", "091605.685000", "091607.175000", "091608.665000", "091610.155000", "091611.645000", "091613.135000", "091614.625000", "091616.115000", "091617.605000", "091619.095000", "091620.585000", "091622.075000", "091623.565000", "091625.055000", "091626.545000", "091628.035000", "091629.525000", "091631.015000", "091632.505000", "091633.995000", "091635.485000", "091636.975000", "091638.465000", "091639.955000", "091641.445000", "091642.935000", "091644.425000", "091645.915000", "091647.405000", "091648.895000", "091650.385000", "091651.875000", "091653.365000", "091654.855000", "091656.345000", "091657.835000", "091659.325000", "091700.815000", "091702.305000", "091703.795000", "091705.285000", "091706.775000", "091708.265000", "091709.755000", "091711.245000", "091712.735000", "091714.225000", "091715.715000", "091717.205000", "091718.695000", "091720.185000", "091721.675000", "091723.165000", "091724.655000", "091726.145000", "091727.635000", "091729.125000", "091730.615000", "091732.105000", "091733.595000", "091735.085000", "091736.575000", "091738.065000", "091739.555000", "091741.045000", "091742.535000", "091744.025000", "091745.515000", "091747.005000", "091748.495000", "091749.985000", "091751.475000", "091752.965000", "091754.455000", "091755.945000", "091757.435000", "091758.925000", "091800.415000", "091801.905000", "091803.395000", "091804.885000", "091806.375000", "091807.865000", "091809.355000", "091810.845000", "091812.335000", "091813.825000", "091815.315000", "091816.805000", "091818.295000", "091819.785000", "091821.275000", "091822.765000", "091824.255000", "091825.745000", "091827.235000", "091828.725000", "091830.215000", "091831.705000", "091833.195000", "091834.685000", "091836.175000", "091837.665000", "091839.155000", "091840.645000", "091842.135000", "091843.625000", "091845.115000", "091846.605000", "091848.095000", "091849.585000", "091851.075000", "091852.565000", "091854.055000", "091855.545000", "091857.035000", "091858.525000", "091900.015000", "091901.505000", "091902.995000", "091904.485000", "091905.975000", "091907.465000", "091908.955000", "091910.445000", "091911.935000", "091913.425000", "091914.915000", "091916.405000", "091917.895000", "091919.385000", "091920.875000", "091922.365000", "091923.855000", "091925.345000", "091926.835000", "091928.325000", "091929.815000", "091931.305000", "091932.795000", "091934.285000", "091935.775000", "091937.265000", "091938.755000", "091940.245000", "091941.735000", "091943.225000", "091944.715000", "091946.205000", "091947.695000", "091949.185000", "091950.675000", "091952.165000", "091953.655000", "091955.145000", "091956.635000", "091958.125000", "091959.615000", "092001.105000", "092002.595000", "092004.085000", "092005.575000", "092007.065000", "092008.555000", "092010.045000", "092011.535000", "092013.025000", "092014.515000", "092016.005000", "092017.495000", "092018.985000", "092020.475000", "092021.965000", "092023.455000", "092024.945000", "092026.435000", "092027.925000", "092029.415000", "092030.905000", "092032.395000", "092033.885000", "092035.375000", "092036.865000", "092038.355000", "092039.845000", "092041.335000", "092042.825000", "092044.315000", "092045.805000", "092047.295000", "092048.785000", "092050.275000", "092051.765000", "092053.255000", "092054.745000", "092056.235000", "092057.725000", "092059.215000", "092100.705000", "092102.195000", "092103.685000", "092105.175000", "092106.665000", "092108.155000", "092109.645000", "092111.135000", "092112.625000", "092114.115000", "092115.605000", "092117.095000", "092118.585000", "092120.075000", "092121.565000", "092123.055000", "092124.545000", "092126.035000", "092127.525000"],
      "ContentTime": ["091209.349000", "091209.353000", "091209.355000", "091209.358000", "091209.368000", "091209.371000", "091209.379000", "091209.382000", "091209.385000", "091209.388000", "091209.391000", "091209.393000", "091209.396000", "091209.399000", "091249.308000", "091249.311000", "091249.313000", "091249.316000", "091249.319000", "091249.322000", "091249.325000", "091249.327000", "091249.330000", "091249.333000", "091249.336000", "091249.339000", "091249.341000", "091249.344000", "091249.347000", "091249.350000", "091249.353000", "091249.355000", "091249.358000", "091249.361000", "091249.364000", "091249.367000", "091249.369000", "091249.372000", "091249.376000", "091249.379000", "091249.382000", "091249.385000", "091249.388000", "091249.391000", "091249.393000", "091249.396000", "091249.399000", "091249.402000", "091249.405000", "091249.407000", "091249.410000", "091249.413000", "091249.416000", "091309.308000", "091309.311000", "091309.314000", "091309.316000", "091309.319000", "091309.322000", "091309.325000", "091309.328000", "091309.330000", "091309.333000", "091309.336000", "091309.339000", "091309.342000", "091309.345000", "091309.347000", "091309.350000", "091309.353000", "091309.356000", "091309.359000", "091309.361000", "091329.308000", "091329.311000", "091329.314000", "091329.316000", "091329.319000", "091329.322000", "091329.325000", "091329.328000", "091329.330000", "091329.333000", "091329.336000", "091329.339000", "091329.342000", "091329.345000", "091329.347000", "091329.350000", "091329.353000", "091329.356000", "091329.359000", "091329.362000", "091349.307000", "091349.310000", "091349.313000", "091349.315000", "091349.318000", "091349.321000", "091349.324000", "091349.327000", "091349.330000", "091349.332000", "091349.335000", "091349.338000", "091349.341000", "091349.347000", "091349.350000", "091349.353000", "091349.356000", "091349.358000", "091349.361000", "091349.364000", "091349.367000", "091429.307000", "091429.310000", "091429.313000", "091429.315000", "091429.318000", "091429.321000", "091429.324000", "091429.327000", "091429.330000", "091429.332000", "091429.335000", "091429.338000", "091429.341000", "091429.344000", "091429.346000", "091429.349000", "091429.352000", "091429.355000", "091429.358000", "091429.361000", "091429.371000", "091429.374000", "091429.377000", "091429.380000", "091429.383000", "091429.386000", "091429.388000", "091429.391000", "091429.394000", "091429.397000", "091429.400000", "091509.308000", "091509.311000", "091509.314000", "091509.325000", "091509.328000", "091509.331000", "091509.334000", "091509.337000", "091509.340000", "091509.342000", "091509.345000", "091509.348000", "091509.351000", "091509.354000", "091509.357000", "091509.360000", "091509.362000", "091509.365000", "091509.368000", "091509.371000", "091509.374000", "091509.376000", "091509.379000", "091509.382000", "091509.385000", "091509.388000", "091509.391000", "091549.308000", "091549.311000", "091549.314000", "091549.317000", "091549.320000", "091549.323000", "091549.325000", "091549.328000", "091549.331000", "091549.334000", "091549.337000", "091549.340000", "091549.343000", "091549.346000", "091549.348000", "091549.367000", "091549.370000", "091549.373000", "091549.376000", "091549.378000", "091549.381000", "091549.384000", "091549.387000", "091549.390000", "091549.393000", "091549.396000", "091629.307000", "091629.310000", "091629.313000", "091629.316000", "091629.319000", "091629.321000", "091629.324000", "091629.327000", "091629.330000", "091629.333000", "091629.336000", "091629.339000", "091629.342000", "091629.344000", "091629.347000", "091629.350000", "091629.353000", "091629.356000", "091629.359000", "091629.362000", "091629.365000", "091629.367000", "091629.370000", "091629.373000", "091629.376000", "091629.379000", "091629.382000", "091709.307000", "091709.310000", "091709.313000", "091709.316000", "091709.319000", "091709.321000", "091709.324000", "091709.327000", "091709.330000", "091709.333000", "091709.336000", "091709.339000", "091709.342000", "091709.344000", "091709.347000", "091709.350000", "091709.353000", "091709.356000", "091709.359000", "091709.362000", "091709.365000", "091709.367000", "091709.370000", "091709.373000", "091709.376000", "091709.379000", "091709.382000", "091749.308000", "091749.311000", "091749.314000", "091749.317000", "091749.320000", "091749.322000", "091749.325000", "091749.328000", "091749.331000", "091749.334000", "091749.337000", "091749.340000", "091749.343000", "091749.345000", "091749.348000", "091749.351000", "091749.354000", "091749.357000", "091749.360000", "091749.363000", "091749.366000", "091749.368000", "091749.372000", "091749.374000", "091749.377000", "091749.380000", "091749.383000", "091829.307000", "091829.310000", "091829.313000", "091829.316000", "091829.319000", "091829.322000", "091829.325000", "091829.327000", "091829.330000", "091829.333000", "091829.336000", "091829.339000", "091829.342000", "091829.345000", "091829.347000", "091829.350000", "091829.353000", "091829.356000", "091829.359000", "091829.362000", "091829.365000", "091829.367000", "091829.370000", "091829.373000", "091829.376000", "091829.379000", "091829.382000", "091909.307000", "091909.310000", "091909.313000", "091909.316000", "091909.319000", "091909.322000", "091909.324000", "091909.327000", "091909.330000", "091909.333000", "091909.336000", "091909.339000", "091909.342000", "091909.344000", "091909.347000", "091909.350000", "091909.353000", "091909.356000", "091909.359000", "091909.362000", "091909.365000", "091909.367000", "091909.370000", "091909.373000", "091909.376000", "091909.379000", "091909.382000", "091949.308000", "091949.311000", "091949.314000", "091949.317000", "091949.320000", "091949.323000", "091949.326000", "091949.329000", "091949.331000", "091949.334000", "091949.337000", "091949.340000", "091949.343000", "091949.346000", "091949.349000", "091949.352000", "091949.354000", "091949.357000", "091949.360000", "091949.363000", "091949.366000", "091949.370000", "091949.373000", "091949.376000", "091949.379000", "091949.382000", "092029.308000", "092029.311000", "092029.324000", "092029.327000", "092029.330000", "092029.333000", "092029.336000", "092029.339000", "092029.342000", "092029.345000", "092029.347000", "092029.350000", "092029.353000", "092029.361000", "092029.364000", "092029.367000", "092029.370000", "092029.373000", "092029.376000", "092029.379000", "092029.381000", "092029.384000", "092029.387000", "092029.390000", "092029.393000", "092029.396000", "092029.399000", "092109.307000", "092109.310000", "092109.313000", "092109.316000", "092109.319000", "092109.322000", "092109.324000", "092109.339000", "092109.342000", "092109.345000", "092109.348000", "092109.350000", "092109.353000", "092109.356000", "092109.359000", "092109.362000", "092109.365000", "092109.368000", "092109.370000", "092109.373000", "092109.376000", "092109.379000", "092109.382000", "092109.385000", "092109.388000", "092109.390000", "092109.393000", "092130.416000", "092130.419000", "092130.423000", "092130.426000", "092130.429000", "092130.432000", "092130.435000", "092130.438000", "092130.440000", "092130.443000", "092130.446000", "092130.450000", "092130.452000", "092130.455000"],
      "InstanceCreationTime": ["091209.349000", "091209.353000", "091209.355000", "091209.358000", "091209.368000", "091209.371000", "091209.379000", "091209.382000", "091209.385000", "091209.388000", "091209.391000", "091209.393000", "091209.396000", "091209.399000", "091249.308000", "091249.311000", "091249.313000", "091249.316000", "091249.319000", "091249.322000", "091249.325000", "091249.327000", "091249.330000", "091249.333000", "091249.336000", "091249.339000", "091249.341000", "091249.344000", "091249.347000", "091249.350000", "091249.353000", "091249.355000", "091249.358000", "091249.361000", "091249.364000", "091249.367000", "091249.369000", "091249.372000", "091249.376000", "091249.379000", "091249.382000", "091249.385000", "091249.388000", "091249.391000", "091249.393000", "091249.396000", "091249.399000", "091249.402000", "091249.405000", "091249.407000", "091249.410000", "091249.413000", "091249.416000", "091309.308000", "091309.311000", "091309.314000", "091309.316000", "091309.319000", "091309.322000", "091309.325000", "091309.328000", "091309.330000", "091309.333000", "091309.336000", "091309.339000", "091309.342000", "091309.345000", "091309.347000", "091309.350000", "091309.353000", "091309.356000", "091309.359000", "091309.361000", "091329.308000", "091329.311000", "091329.314000", "091329.316000", "091329.319000", "091329.322000", "091329.325000", "091329.328000", "091329.330000", "091329.333000", "091329.336000", "091329.339000", "091329.342000", "091329.345000", "091329.347000", "091329.350000", "091329.353000", "091329.356000", "091329.359000", "091329.362000", "091349.307000", "091349.310000", "091349.313000", "091349.315000", "091349.318000", "091349.321000", "091349.324000", "091349.327000", "091349.330000", "091349.332000", "091349.335000", "091349.338000", "091349.341000", "091349.347000", "091349.350000", "091349.353000", "091349.356000", "091349.358000", "091349.361000", "091349.364000", "091349.367000", "091429.307000", "091429.310000", "091429.313000", "091429.315000", "091429.318000", "091429.321000", "091429.324000", "091429.327000", "091429.330000", "091429.332000", "091429.335000", "091429.338000", "091429.341000", "091429.344000", "091429.346000", "091429.349000", "091429.352000", "091429.355000", "091429.358000", "091429.361000", "091429.371000", "091429.374000", "091429.377000", "091429.380000", "091429.383000", "091429.386000", "091429.388000", "091429.391000", "091429.394000", "091429.397000", "091429.400000", "091509.308000", "091509.311000", "091509.314000", "091509.325000", "091509.328000", "091509.331000", "091509.334000", "091509.337000", "091509.340000", "091509.342000", "091509.345000", "091509.348000", "091509.351000", "091509.354000", "091509.357000", "091509.360000", "091509.362000", "091509.365000", "091509.368000", "091509.371000", "091509.374000", "091509.376000", "091509.379000", "091509.382000", "091509.385000", "091509.388000", "091509.391000", "091549.308000", "091549.311000", "091549.314000", "091549.317000", "091549.320000", "091549.323000", "091549.325000", "091549.328000", "091549.331000", "091549.334000", "091549.337000", "091549.340000", "091549.343000", "091549.346000", "091549.348000", "091549.367000", "091549.370000", "091549.373000", "091549.376000", "091549.378000", "091549.381000", "091549.384000", "091549.387000", "091549.390000", "091549.393000", "091549.396000", "091629.307000", "091629.310000", "091629.313000", "091629.316000", "091629.319000", "091629.321000", "091629.324000", "091629.327000", "091629.330000", "091629.333000", "091629.336000", "091629.339000", "091629.342000", "091629.344000", "091629.347000", "091629.350000", "091629.353000", "091629.356000", "091629.359000", "091629.362000", "091629.365000", "091629.367000", "091629.370000", "091629.373000", "091629.376000", "091629.379000", "091629.382000", "091709.307000", "091709.310000", "091709.313000", "091709.316000", "091709.319000", "091709.321000", "091709.324000", "091709.327000", "091709.330000", "091709.333000", "091709.336000", "091709.339000", "091709.342000", "091709.344000", "091709.347000", "091709.350000", "091709.353000", "091709.356000", "091709.359000", "091709.362000", "091709.365000", "091709.367000", "091709.370000", "091709.373000", "091709.376000", "091709.379000", "091709.382000", "091749.308000", "091749.311000", "091749.314000", "091749.317000", "091749.320000", "091749.322000", "091749.325000", "091749.328000", "091749.331000", "091749.334000", "091749.337000", "091749.340000", "091749.343000", "091749.345000", "091749.348000", "091749.351000", "091749.354000", "091749.357000", "091749.360000", "091749.363000", "091749.366000", "091749.368000", "091749.372000", "091749.374000", "091749.377000", "091749.380000", "091749.383000", "091829.307000", "091829.310000", "091829.313000", "091829.316000", "091829.319000", "091829.322000", "091829.325000", "091829.327000", "091829.330000", "091829.333000", "091829.336000", "091829.339000", "091829.342000", "091829.345000", "091829.347000", "091829.350000", "091829.353000", "091829.356000", "091829.359000", "091829.362000", "091829.365000", "091829.367000", "091829.370000", "091829.373000", "091829.376000", "091829.379000", "091829.382000", "091909.307000", "091909.310000", "091909.313000", "091909.316000", "091909.319000", "091909.322000", "091909.324000", "091909.327000", "091909.330000", "091909.333000", "091909.336000", "091909.339000", "091909.342000", "091909.344000", "091909.347000", "091909.350000", "091909.353000", "091909.356000", "091909.359000", "091909.362000", "091909.365000", "091909.367000", "091909.370000", "091909.373000", "091909.376000", "091909.379000", "091909.382000", "091949.308000", "091949.311000", "091949.314000", "091949.317000", "091949.320000", "091949.323000", "091949.326000", "091949.329000", "091949.331000", "091949.334000", "091949.337000", "091949.340000", "091949.343000", "091949.346000", "091949.349000", "091949.352000", "091949.354000", "091949.357000", "091949.360000", "091949.363000", "091949.366000", "091949.370000", "091949.373000", "091949.376000", "091949.379000", "091949.382000", "092029.308000", "092029.311000", "092029.324000", "092029.327000", "092029.330000", "092029.333000", "092029.336000", "092029.339000", "092029.342000", "092029.345000", "092029.347000", "092029.350000", "092029.353000", "092029.361000", "092029.364000", "092029.367000", "092029.370000", "092029.373000", "092029.376000", "092029.379000", "092029.381000", "092029.384000", "092029.387000", "092029.390000", "092029.393000", "092029.396000", "092029.399000", "092109.307000", "092109.310000", "092109.313000", "092109.316000", "092109.319000", "092109.322000", "092109.324000", "092109.339000", "092109.342000", "092109.345000", "092109.348000", "092109.350000", "092109.353000", "092109.356000", "092109.359000", "092109.362000", "092109.365000", "092109.368000", "092109.370000", "092109.373000", "092109.376000", "092109.379000", "092109.382000", "092109.385000", "092109.388000", "092109.390000", "092109.393000", "092130.416000", "092130.419000", "092130.423000", "092130.426000", "092130.429000", "092130.432000", "092130.435000", "092130.438000", "092130.440000", "092130.443000", "092130.446000", "092130.450000", "092130.452000", "092130.455000"],
