{
  "AcquisitionMatrixPE": 104,
  "AcquisitionNumber": 1,
  "AcquisitionTime": "09:22:1.025000",
  "BandwidthPerPixelPhaseEncode": 17.17,
  "BaseResolution": 104,
  "BodyPartExamined": "BRAIN",
  "CoilString": "HC1-7;NC1_2",
  "ConsistencyInfo": "N4_VE11C_LATEST_20160120",
  "ConversionSoftware": "dcm2niix",
  "ConversionSoftwareVersion": "v1.0.20190902",
  "DerivedVendorReportedEchoSpacing": 0.000560011,
  "DeviceSerialNumber": "167006",
  "DwellTime": 2.1e-06,
  "EchoTime": 0.037,
  "EchoTrainLength": 104,
  "EffectiveEchoSpacing": 0.000560011,
  "FlipAngle": 52,
  "ImageComments": "Unaliased_MB4_PE3_LB",
  "ImageOrientationPatientDICOM": [0.999553, 0.0241198, 0.0176663, -0.0122125, 0.868742, -0.495114],
  "ImageType": [
    "ORIGINAL",
    "PRIMARY",
    "M",
    "MB",
    "ND",
    "MOSAIC"
],
  "ImagingFrequency": 123.259,
  "InPlanePhaseEncodingDirectionDICOM": "COL",
  "InstitutionAddress": "Chemin_Queen-Mary_4565_Montreal_District_CA_H3W_1W5",
  "InstitutionName": "IUGM",
  "InstitutionalDepartmentName": "Department",
  "MRAcquisitionType": "2D",
  "MagneticFieldStrength": 3,
  "Manufacturer": "Siemens",
  "ManufacturersModelName": "Prisma_fit",
  "Modality": "MR",
  "MultibandAccelerationFactor": 4,
  "PartialFourier": 1,
  "PatientPosition": "HFS",
  "PercentPhaseFOV": 100,
  "PhaseEncodingDirection": "j",
  "PhaseEncodingSteps": 104,
  "PhaseResolution": 1,
  "PixelBandwidth": 2290,
  "ProcedureStepDescription": "games_shinobi",
  "ProtocolName": "func_task-shinobi_run-2",
  "PulseSequenceDetails": "%CustomerSeq%_cmrr_mbep2d_bold",
  "ReceiveCoilActiveElements": "HC1-7;NC1,2",
  "ReceiveCoilName": "HeadNeck_64",
  "ReconMatrixPE": 104,
  "RepetitionTime": 1.49,
  "SAR": 0.0334369,
  "ScanOptions": "FS",
  "ScanningSequence": "EP",
  "SequenceName": "epfid2d1_104",
  "SequenceVariant": "SK_SS",
  "SeriesDescription": "func_task-shinobi_run-2",
  "SeriesNumber": 11,
  "ShimSetting": [626, -7194, -8881, 392, 15, -189, -14, -24],
  "SliceThickness": 2,
  "SliceTiming": [0, 0.7825, 0.0975, 0.88, 0.195, 0.9775, 0.2925, 1.0775, 0.39, 1.175, 0.49, 1.2725, 0.5875, 1.37, 0.685, 0, 0.7825, 0.0975, 0.88, 0.195, 0.9775, 0.2925, 1.0775, 0.39, 1.175, 0.49, 1.2725, 0.5875, 1.37, 0.685, 0, 0.7825, 0.0975, 0.88, 0.195, 0.9775, 0.2925, 1.0775, 0.39, 1.175, 0.49, 1.2725, 0.5875, 1.37, 0.685, 0, 0.7825, 0.0975, 0.88, 0.195, 0.9775, 0.2925, 1.0775, 0.39, 1.175, 0.49, 1.2725, 0.5875, 1.37, 0.685],
  "SoftwareVersions": "syngo_MR_E11",
  "SpacingBetweenSlices": 2,
  "StationName": "MRC35049",
  "TaskName": "shinobi",
  "TotalReadoutTime": 0.0576811,
  "TxRefAmp": 246.469,
  "WipMemBlock": "80ab30ac-24c1-4ee6-9435-1e3d312ead36||Sequence: R016 ve11c/master r/e634e98; Dec 19 2017 11:00:25 by eja",
  "dcmmeta_affine": [
    [-1.9991059303283691, -0.024424906820058823, 0.054579079151153564, 106.79802703857422],
    [-0.04823954030871391, 1.7374838590621948, -0.98935467004776, -49.62031555175781],
    [0.03533268719911575, 0.9902288317680359, 1.7372963428497314, -105.40050506591797],
    [0.0, 0.0, 0.0, 1.0]
],
  "dcmmeta_reorient_transform": [
    [0.0, -1.0, 0.0, 103.0],
    [1.0, 0.0, 0.0, 0.0],
    [0.0, 0.0, 1.0, 0.0],
    [0.0, 0.0, 0.0, 1.0]
],
  "dcmmeta_shape": [104, 104, 60, 427],
  "dcmmeta_slice_dim": 2,
  "dcmmeta_version": 0.6,
  "global": {
    "const": {
      "AcquisitionMatrix": [104, 0, 0, 104],
      "AngioFlag": "N",
      "BitsAllocated": 16,
      "BitsStored": 16,
      "BodyPartExamined": "BRAIN",
      "Columns": 832,
      "EchoNumbers": 1,
      "EchoTime": 37.0,
      "EchoTrainLength": 104,
      "FlipAngle": 52.0,
      "HighBit": 15,
      "ImageOrientationPatient": [0.99955296857236, 0.02411977011396, 0.01766634392922, -0.0122124536122, 0.8687419429935, -0.4951144236039],
      "ImagePositionPatient": [-823.06615309424, -779.34385164696, 344.17526740777],
      "ImageType": [
        "ORIGINAL",
        "PRIMARY",
        "M",
        "MB",
        "ND",
        "MOSAIC"
],
      "ImagedNucleus": "1H",
      "ImagingFrequency": 123.259046,
      "InPlanePhaseEncodingDirection": "COL",
      "MRAcquisitionType": "2D",
      "MagneticFieldStrength": 3.0,
      "Manufacturer": "SIEMENS",
      "ManufacturerModelName": "Prisma_fit",
      "Modality": "MR",
      "NumberOfAverages": 1.0,
      "NumberOfPhaseEncodingSteps": 104,
      "PercentPhaseFieldOfView": 100.0,
      "PercentSampling": 100.0,
      "PerformedProcedureStepStartTime": "085907.686000",
      "PhotometricInterpretation": "MONOCHROME2",
      "PixelBandwidth": 2290.0,
      "PixelRepresentation": 0,
      "PixelSpacing": [2.0, 2.0],
      "ProtocolName": "func_task-shinobi_run-2",
      "RepetitionTime": 1490.0,
      "Rows": 832,
      "SAR": 0.03343694100804,
      "SamplesPerPixel": 1,
      "ScanOptions": "FS",
      "ScanningSequence": "EP",
      "SequenceName": "epfid2d1_104",
      "SequenceVariant": [
        "SK",
        "SS"
],
      "SeriesDescription": "func_task-shinobi_run-2",
      "SeriesNumber": 11,
      "SeriesTime": "092321.794000",
      "SliceLocation": -64.095439511054,
      "SliceThickness": 2.0,
      "SmallestImagePixelValue": 0,
      "SoftwareVersions": "syngo MR E11",
      "SpacingBetweenSlices": 1.9999999927295,
      "SpecificCharacterSet": "ISO_IR 100",
      "StudyID": "1",
      "StudyTime": "085907.508000",
      "TransmitCoilName": "Body",
      "VariableFlipAngleFlag": "N",
      "WindowCenterWidthExplanation": "Algo1",
      "dBdt": 0.0},
    "slices": {}
  },
  "time": {
    "samples": {
      "AcquisitionNumber": [1, 2, 3, 4, 5, 6, 7, 8, 9, 10, 11, 12, 13, 14, 15, 16, 17, 18, 19, 20, 21, 22, 23, 24, 25, 26, 27, 28, 29, 30, 31, 32, 33, 34, 35, 36, 37, 38, 39, 40, 41, 42, 43, 44, 45, 46, 47, 48, 49, 50, 51, 52, 53, 54, 55, 56, 57, 58, 59, 60, 61, 62, 63, 64, 65, 66, 67, 68, 69, 70, 71, 72, 73, 74, 75, 76, 77, 78, 79, 80, 81, 82, 83, 84, 85, 86, 87, 88, 89, 90, 91, 92, 93, 94, 95, 96, 97, 98, 99, 100, 101, 102, 103, 104, 105, 106, 107, 108, 109, 110, 111, 112, 113, 114, 115, 116, 117, 118, 119, 120, 121, 122, 123, 124, 125, 126, 127, 128, 129, 130, 131, 132, 133, 134, 135, 136, 137, 138, 139, 140, 141, 142, 143, 144, 145, 146, 147, 148, 149, 150, 151, 152, 153, 154, 155, 156, 157, 158, 159, 160, 161, 162, 163, 164, 165, 166, 167, 168, 169, 170, 171, 172, 173, 174, 175, 176, 177, 178, 179, 180, 181, 182, 183, 184, 185, 186, 187, 188, 189, 190, 191, 192, 193, 194, 195, 196, 197, 198, 199, 200, 201, 202, 203, 204, 205, 206, 207, 208, 209, 210, 211, 212, 213, 214, 215, 216, 217, 218, 219, 220, 221, 222, 223, 224, 225, 226, 227, 228, 229, 230, 231, 232, 233, 234, 235, 236, 237, 238, 239, 240, 241, 242, 243, 244, 245, 246, 247, 248, 249, 250, 251, 252, 253, 254, 255, 256, 257, 258, 259, 260, 261, 262, 263, 264, 265, 266, 267, 268, 269, 270, 271, 272, 273, 274, 275, 276, 277, 278, 279, 280, 281, 282, 283, 284, 285, 286, 287, 288, 289, 290, 291, 292, 293, 294, 295, 296, 297, 298, 299, 300, 301, 302, 303, 304, 305, 306, 307, 308, 309, 310, 311, 312, 313, 314, 315, 316, 317, 318, 319, 320, 321, 322, 323, 324, 325, 326, 327, 328, 329, 330, 331, 332, 333, 334, 335, 336, 337, 338, 339, 340, 341, 342, 343, 344, 345, 346, 347, 348, 349, 350, 351, 352, 353, 354, 355, 356, 357, 358, 359, 360, 361, 362, 363, 364, 365, 366, 367, 368, 369, 370, 371, 372, 373, 374, 375, 376, 377, 378, 379, 380, 381, 382, 383, 384, 385, 386, 387, 388, 389, 390, 391, 392, 393, 394, 395, 396, 397, 398, 399, 400, 401, 402, 403, 404, 405, 406, 407, 408, 409, 410, 411, 412, 413, 414, 415, 416, 417, 418, 419, 420, 421, 422, 423, 424, 425, 426, 427],
      "AcquisitionTime": ["092201.025000", "092202.515000", "092204.005000", "092205.495000", "092206.985000", "092208.475000", "092209.965000", "092211.455000", "092212.945000", "092214.435000", "092215.925000", "092217.415000", "092218.905000", "092220.395000", "092221.885000", "092223.375000", "092224.865000", "092226.355000", "092227.845000", "092229.335000", "092230.825000", "092232.315000", "092233.805000", "092235.295000", "092236.785000", "092238.275000", "092239.765000", "092241.255000", "092242.745000", "092244.235000", "092245.725000", "092247.215000", "092248.705000", "092250.195000", "092251.685000", "092253.175000", "092254.665000", "092256.155000", "092257.645000", "092259.135000", "092300.625000", "092302.115000", "092303.605000", "092305.095000", "092306.585000", "092308.075000", "092309.565000", "092311.055000", "092312.545000", "092314.035000", "092315.525000", "092317.015000", "092318.505000", "092319.995000", "092321.485000", "092322.975000", "092324.465000", "092325.955000", "092327.445000", "092328.935000", "092330.425000", "092331.915000", "092333.405000", "092334.895000", "092336.385000", "092337.875000", "092339.365000", "092340.855000", "092342.345000", "092343.835000", "092345.325000", "092346.815000", "092348.305000", "092349.795000", "092351.285000", "092352.775000", "092354.265000", "092355.755000", "092357.245000", "092358.735000", "092400.225000", "092401.715000", "092403.205000", "092404.695000", "092406.185000", "092407.675000", "092409.165000", "092410.655000", "092412.145000", "092413.635000", "092415.125000", "092416.615000", "092418.105000", "092419.595000", "092421.085000", "092422.575000", "092424.065000", "092425.555000", "092427.045000", "092428.535000", "092430.025000", "092431.515000", "092433.005000", "092434.495000", "092435.985000", "092437.475000", "092438.965000", "092440.455000", "092441.945000", "092443.435000", "092444.925000", "092446.415000", "092447.905000", "092449.395000", "092450.885000", "092452.375000", "092453.865000", "092455.355000", "092456.845000", "092458.335000", "092459.825000", "092501.315000", "092502.805000", "092504.295000", "092505.785000", "092507.275000", "092508.765000", "092510.255000", "092511.745000", "092513.235000", "092514.725000", "092516.215000", "092517.705000", "092519.195000", "092520.685000", "092522.175000", "092523.665000", "092525.155000", "092526.645000", "092528.135000", "092529.625000", "092531.115000", "092532.605000", "092534.095000", "092535.585000", "092537.075000", "092538.565000", "092540.055000", "092541.545000", "092543.035000", "092544.525000", "092546.015000", "092547.505000", "092548.995000", "092550.485000", "092551.975000", "092553.465000", "092554.955000", "092556.445000", "092557.935000", "092559.425000", "092600.915000", "092602.405000", "092603.895000", "092605.385000", "092606.875000", "092608.365000", "092609.855000", "092611.345000", "092612.835000", "092614.325000", "092615.815000", "092617.305000", "092618.795000", "092620.285000", "092621.775000", "092623.265000", "092624.755000", "092626.245000", "092627.735000", "092629.225000", "092630.715000", "092632.205000", "092633.695000", "092635.185000", "092636.675000", "092638.165000", "092639.655000", "092641.145000", "092642.635000", "092644.125000", "092645.615000", "092647.105000", "092648.595000", "092650.085000", "092651.575000", "092653.065000", "092654.555000", "092656.045000", "092657.535000", "092659.025000", "092700.515000", "092702.005000", "092703.495000", "092704.985000", "092706.475000", "092707.965000", "092709.455000", "092710.945000", "092712.435000", "092713.925000", "092715.415000", "092716.905000", "092718.395000", "092719.885000", "092721.375000", "092722.865000", "092724.355000", "092725.845000", "092727.335000", "092728.825000", "092730.315000", "092731.805000", "092733.295000", "092734.785000", "092736.275000", "092737.765000", "092739.255000", "092740.745000", "092742.235000", "092743.725000", "092745.215000", "092746.705000", "092748.195000", "092749.685000", "092751.175000", "092752.665000", "092754.155000", "092755.645000", "092757.135000", "092758.625000", "092800.115000", "092801.605000", "092803.095000", "092804.585000", "092806.075000", "092807.565000", "092809.055000", "092810.545000", "092812.035000", "092813.525000", "092815.015000", "092816.505000", "092817.995000", "092819.485000", "092820.975000", "092822.465000", "092823.955000", "092825.445000", "092826.935000", "092828.425000", "092829.915000", "092831.405000", "092832.895000", "092834.385000", "092835.875000", "092837.365000", "092838.855000", "092840.345000", "092841.835000", "092843.325000", "092844.815000", "092846.305000", "092847.795000", "092849.285000", "092850.775000", "092852.265000", "092853.755000", "092855.245000", "092856.735000", "092858.225000", "092859.715000", "092901.205000", "092902.695000", "092904.185000", "092905.675000", "092907.165000", "092908.655000", "092910.145000", "092911.635000", "092913.125000", "092914.615000", "092916.105000", "092917.595000", "092919.085000", "092920.575000", "092922.065000", "092923.555000", "092925.045000", "092926.535000", "092928.025000", "092929.515000", "092931.005000", "092932.495000", "092933.985000", "092935.475000", "092936.965000", "092938.455000", "092939.945000", "092941.435000", "092942.925000", "092944.415000", "092945.905000", "092947.395000", "092948.885000", "092950.375000", "092951.865000", "092953.355000", "092954.845000", "092956.335000", "092957.825000", "092959.315000", "093000.805000", "093002.295000", "093003.785000", "093005.275000", "093006.765000", "093008.255000", "093009.745000", "093011.235000", "093012.725000", "093014.215000", "093015.705000", "093017.195000", "093018.685000", "093020.175000", "093021.665000", "093023.155000", "093024.645000", "093026.135000", "093027.625000", "093029.115000", "093030.605000", "093032.095000", "093033.585000", "093035.075000", "093036.565000", "093038.055000", "093039.545000", "093041.035000", "093042.525000", "093044.015000", "093045.505000", "093046.995000", "093048.485000", "093049.975000", "093051.465000", "093052.955000", "093054.445000", "093055.935000", "093057.425000", "093058.915000", "093100.405000", "093101.895000", "093103.385000", "093104.875000", "093106.365000", "093107.855000", "093109.345000", "093110.835000", "093112.325000", "093113.815000", "093115.305000", "093116.795000", "093118.285000", "093119.775000", "093121.265000", "093122.755000", "093124.245000", "093125.735000", "093127.225000", "093128.715000", "093130.205000", "093131.695000", "093133.185000", "093134.675000", "093136.165000", "093137.655000", "093139.145000", "093140.635000", "093142.125000", "093143.615000", "093145.105000", "093146.595000", "093148.085000", "093149.575000", "093151.065000", "093152.555000", "093154.045000", "093155.535000", "093157.025000", "093158.515000", "093200.005000", "093201.495000", "093202.985000", "093204.475000", "093205.965000", "093207.455000", "093208.945000", "093210.435000", "093211.925000", "093213.415000", "093214.905000", "093216.395000", "093217.885000", "093219.375000", "093220.865000", "093222.355000", "093223.845000", "093225.335000", "093226.825000", "093228.315000", "093229.805000", "093231.295000", "093232.785000", "093234.275000", "093235.765000"],
      "ContentTime": ["092321.796000", "092321.800000", "092321.803000", "092321.809000", "092321.812000", "092321.815000", "092321.818000", "092321.821000", "092321.824000", "092321.827000", "092321.829000", "092321.832000", "092321.835000", "092321.838000", "092321.841000", "092321.844000", "092321.847000", "092321.850000", "092321.852000", "092321.855000", "092321.858000", "092321.861000", "092321.864000", "092321.867000", "092321.870000", "092321.873000", "092321.875000", "092341.760000", "092341.763000", "092341.766000", "092341.769000", "092341.772000", "092341.775000", "092341.778000", "092341.780000", "092341.783000", "092341.786000", "092341.789000", "092341.792000", "092341.795000", "092341.797000", "092341.800000", "092341.803000", "092341.806000", "092341.809000", "092341.812000", "092341.815000", "092341.817000", "092401.760000", "092401.763000", "092401.766000", "092401.769000", "092401.771000", "092401.774000", "092401.777000", "092401.780000", "092401.783000", "092401.786000", "092401.791000", "092401.794000", "092401.797000", "092401.799000", "092401.802000", "092401.805000", "092401.808000", "092401.811000", "092401.813000", "092401.816000", "092421.760000", "092421.763000", "092421.766000", "092421.768000", "092421.771000", "092421.774000", "092421.777000", "092421.780000", "092421.782000", "092421.785000", "092421.788000", "092421.806000", "092421.809000", "092421.812000", "092421.815000", "092421.817000", "092421.820000", "092421.823000", "092421.826000", "092421.829000", "092501.760000", "092501.763000", "092501.766000", "092501.769000", "092501.771000", "092501.774000", "092501.777000", "092501.780000", "092501.783000", "092501.786000", "092501.788000", "092501.791000", "092501.803000", "092501.805000", "092501.808000", "092501.811000", "092501.814000", "092501.817000", "092501.819000", "092501.822000", "092501.825000", "092501.828000", "092501.831000", "092501.834000", "092501.836000", "092501.839000", "092501.842000", "092501.845000", "092501.848000", "092501.851000", "092501.854000", "092501.857000", "092541.760000", "092541.763000", "092541.766000", "092541.769000", "092541.771000", "092541.774000", "092541.777000", "092541.780000", "092541.783000", "092541.786000", "092541.788000", "092541.791000", "092541.794000", "092541.797000", "092541.800000", "092541.803000", "092541.806000", "092541.808000", "092541.811000", "092541.814000", "092541.817000", "092541.820000", "092541.823000", "092541.826000", "092541.829000", "092541.832000", "092541.835000", "092621.760000", "092621.763000", "092621.766000", "092621.769000", "092621.772000", "092621.775000", "092621.778000", "092621.780000", "092621.783000", "092621.786000", "092621.789000", "092621.792000", "092621.795000", "092621.798000", "092621.801000", "092621.803000", "092621.806000", "092621.809000", "092621.812000", "092621.819000", "092621.822000", "092621.825000", "092621.828000", "092621.831000", "092621.833000", "092621.836000", "092621.839000", "092701.760000", "092701.763000", "092701.766000", "092701.769000", "092701.772000", "092701.775000", "092701.778000", "092701.781000", "092701.783000", "092701.786000", "092701.789000", "092701.792000", "092701.795000", "092701.798000", "092701.801000", "092701.804000", "092701.807000", "092701.810000", "092701.813000", "092701.815000", "092701.818000", "092701.821000", "092701.824000", "092701.827000", "092701.830000", "092701.833000", "092701.836000", "092741.760000", "092741.763000", "092741.766000", "092741.768000", "092741.772000", "092741.775000", "092741.777000", "092741.780000", "092741.783000", "092741.786000", "092741.789000", "092741.792000", "092741.795000", "092741.798000", "092741.801000", "092741.803000", "092741.806000", "092741.809000", "092741.812000", "092741.815000", "092741.818000", "092741.821000", "092741.824000", "092741.826000", "092741.829000", "092741.832000", "092741.835000", "092821.760000", "092821.763000", "092821.766000", "092821.769000", "092821.772000", "092821.775000", "092821.778000", "092821.781000", "092821.784000", "092821.787000", "092821.789000", "092821.793000", "092821.796000", "092821.798000", "092821.801000", "092821.804000", "092821.807000", "092821.810000", "092821.813000", "092821.816000", "092821.819000", "092821.822000", "092821.824000", "092821.828000", "092821.830000", "092821.833000", "092821.836000", "092901.760000", "092901.763000", "092901.766000", "092901.769000", "092901.772000", "092901.774000", "092901.777000", "092901.780000", "092901.783000", "092901.786000", "092901.790000", "092901.793000", "092901.796000", "092901.799000", "092901.802000", "092901.804000", "092901.807000", "092901.810000", "092901.813000", "092901.816000", "092901.819000", "092901.822000", "092901.825000", "092901.827000", "092901.830000", "092901.833000", "092941.770000", "092941.773000", "092941.776000", "092941.779000", "092941.782000", "092941.785000", "092941.788000", "092941.791000", "092941.794000", "092941.797000", "092941.799000", "092941.802000", "092941.805000", "092941.808000", "092941.811000", "092941.814000", "092941.817000", "092941.820000", "092941.823000", "092941.826000", "092941.829000", "092941.831000", "092941.834000", "092941.837000", "092941.840000", "092941.843000", "092941.846000", "093021.760000", "093021.763000", "093021.766000", "093021.769000", "093021.772000", "093021.774000", "093021.777000", "093021.780000", "093021.783000", "093021.786000", "093021.789000", "093021.792000", "093021.795000", "093021.798000", "093021.801000", "093021.804000", "093021.807000", "093021.810000", "093021.813000", "093021.816000", "093021.819000", "093021.822000", "093021.824000", "093021.827000", "093021.830000", "093021.833000", "093021.836000", "093041.760000", "093041.763000", "093041.766000", "093041.769000", "093041.772000", "093041.775000", "093041.778000", "093041.781000", "093041.784000", "093041.787000", "093041.790000", "093041.792000", "093041.796000", "093041.799000", "093121.760000", "093121.763000", "093121.766000", "093121.769000", "093121.772000", "093121.774000", "093121.778000", "093121.780000", "093121.783000", "093121.786000", "093121.790000", "093121.793000", "093121.795000", "093121.798000", "093121.801000", "093121.804000", "093121.807000", "093121.810000", "093121.813000", "093121.816000", "093121.819000", "093121.822000", "093121.825000", "093121.827000", "093121.830000", "093121.833000", "093201.760000", "093201.763000", "093201.766000", "093201.769000", "093201.772000", "093201.774000", "093201.778000", "093201.780000", "093201.783000", "093201.786000", "093201.789000", "093201.792000", "093201.795000", "093201.798000", "093201.801000", "093201.803000", "093201.806000", "093201.809000", "093201.812000", "093201.815000", "093201.818000", "093201.821000", "093201.824000", "093201.826000", "093201.829000", "093201.832000", "093201.835000", "093239.069000", "093239.072000", "093239.075000", "093239.078000", "093239.081000", "093239.084000", "093239.087000", "093239.089000", "093239.093000", "093239.103000", "093239.107000", "093239.110000", "093239.113000", "093239.117000", "093239.120000", "093239.123000", "093239.126000", "093239.129000", "093239.132000", "093239.134000", "093239.137000", "093239.140000", "093239.143000", "093239.146000", "093239.149000"],
      "InstanceCreationTime": ["092321.796000", "092321.800000", "092321.803000", "092321.809000", "092321.812000", "092321.815000", "092321.818000", "092321.821000", "092321.824000", "092321.827000", "092321.829000", "092321.832000", "092321.835000", "092321.838000", "092321.841000", "092321.844000", "092321.847000", "092321.850000", "092321.852000", "092321.855000", "092321.858000", "092321.861000", "092321.864000", "092321.867000", "092321.870000", "092321.873000", "092321.875000", "092341.760000", "092341.763000", "092341.766000", "092341.769000", "092341.772000", "092341.775000", "092341.778000", "092341.780000", "092341.783000", "092341.786000", "092341.789000", "092341.792000", "092341.795000", "092341.797000", "092341.800000", "092341.803000", "092341.806000", "092341.809000", "092341.812000", "092341.815000", "092341.817000", "092401.760000", "092401.763000", "092401.766000", "092401.769000", "092401.771000", "092401.774000", "092401.777000", "092401.780000", "092401.783000", "092401.786000", "092401.791000", "092401.794000", "092401.797000", "092401.799000", "092401.802000", "092401.805000", "092401.808000", "092401.811000", "092401.813000", "092401.816000", "092421.760000", "092421.763000", "092421.766000", "092421.768000", "092421.771000", "092421.774000", "092421.777000", "092421.780000", "092421.782000", "092421.785000", "092421.788000", "092421.806000", "092421.809000", "092421.812000", "092421.815000", "092421.817000", "092421.820000", "092421.823000", "092421.826000", "092421.829000", "092501.760000", "092501.763000", "092501.766000", "092501.769000", "092501.771000", "092501.774000", "092501.777000", "092501.780000", "092501.783000", "092501.786000", "092501.788000", "092501.791000", "092501.803000", "092501.805000", "092501.808000", "092501.811000", "092501.814000", "092501.817000", "092501.819000", "092501.822000", "092501.825000", "092501.828000", "092501.831000", "092501.834000", "092501.836000", "092501.839000", "092501.842000", "092501.845000", "092501.848000", "092501.851000", "092501.854000", "092501.857000", "092541.760000", "092541.763000", "092541.766000", "092541.769000", "092541.771000", "092541.774000", "092541.777000", "092541.780000", "092541.783000", "092541.786000", "092541.788000", "092541.791000", "092541.794000", "092541.797000", "092541.800000", "092541.803000", "092541.806000", "092541.808000", "092541.811000", "092541.814000", "092541.817000", "092541.820000", "092541.823000", "092541.826000", "092541.829000", "092541.832000", "092541.835000", "092621.760000", "092621.763000", "092621.766000", "092621.769000", "092621.772000", "092621.775000", "092621.778000", "092621.780000", "092621.783000", "092621.786000", "092621.789000", "092621.792000", "092621.795000", "092621.798000", "092621.801000", "092621.803000", "092621.806000", "092621.809000", "092621.812000", "092621.819000", "092621.822000", "092621.825000", "092621.828000", "092621.831000", "092621.833000", "092621.836000", "092621.839000", "092701.760000", "092701.763000", "092701.766000", "092701.769000", "092701.772000", "092701.775000", "092701.778000", "092701.781000", "092701.783000", "092701.786000", "092701.789000", "092701.792000", "092701.795000", "092701.798000", "092701.801000", "092701.804000", "092701.807000", "092701.810000", "092701.813000", "092701.815000", "092701.818000", "092701.821000", "092701.824000", "092701.827000", "092701.830000", "092701.833000", "092701.836000", "092741.760000", "092741.763000", "092741.766000", "092741.768000", "092741.772000", "092741.775000", "092741.777000", "092741.780000", "092741.783000", "092741.786000", "092741.789000", "092741.792000", "092741.795000", "092741.798000", "092741.801000", "092741.803000", "092741.806000", "092741.809000", "092741.812000", "092741.815000", "092741.818000", "092741.821000", "092741.824000", "092741.826000", "092741.829000", "092741.832000", "092741.835000", "092821.760000", "092821.763000", "092821.766000", "092821.769000", "092821.772000", "092821.775000", "092821.778000", "092821.781000", "092821.784000", "092821.787000", "092821.789000", "092821.793000", "092821.796000", "092821.798000", "092821.801000", "092821.804000", "092821.807000", "092821.810000", "092821.813000", "092821.816000", "092821.819000", "092821.822000", "092821.824000", "092821.828000", "092821.830000", "092821.833000", "092821.836000", "092901.760000", "092901.763000", "092901.766000", "092901.769000", "092901.772000", "092901.774000", "092901.777000", "092901.780000", "092901.783000", "092901.786000", "092901.790000", "092901.793000", "092901.796000", "092901.799000", "092901.802000", "092901.804000", "092901.807000", "092901.810000", "092901.813000", "092901.816000", "092901.819000", "092901.822000", "092901.825000", "092901.827000", "092901.830000", "092901.833000", "092941.770000", "092941.773000", "092941.776000", "092941.779000", "092941.782000", "092941.785000", "092941.788000", "092941.791000", "092941.794000", "092941.797000", "092941.799000", "092941.802000", "092941.805000", "092941.808000", "092941.811000", "092941.814000", "092941.817000", "092941.820000", "092941.823000", "092941.826000", "092941.829000", "092941.831000", "092941.834000", "092941.837000", "092941.840000", "092941.843000", "092941.846000", "093021.760000", "093021.763000", "093021.766000", "093021.769000", "093021.772000", "093021.774000", "093021.777000", "093021.780000", "093021.783000", "093021.786000", "093021.789000", "093021.792000", "093021.795000", "093021.798000", "093021.801000", "093021.804000", "093021.807000", "093021.810000", "093021.813000", "093021.816000", "093021.819000", "093021.822000", "093021.824000", "093021.827000", "093021.830000", "093021.833000", "093021.836000", "093041.760000", "093041.763000", "093041.766000", "093041.769000", "093041.772000", "093041.775000", "093041.778000", "093041.781000", "093041.784000", "093041.787000", "093041.790000", "093041.792000", "093041.796000", "093041.799000", "093121.760000", "093121.763000", "093121.766000", "093121.769000", "093121.772000", "093121.774000", "093121.778000", "093121.780000", "093121.783000", "093121.786000", "093121.790000", "093121.793000", "093121.795000", "093121.798000", "093121.801000", "093121.804000", "093121.807000", "093121.810000", "093121.813000", "093121.816000", "093121.819000", "093121.822000", "093121.825000", "093121.827000", "093121.830000", "093121.833000", "093201.760000", "093201.763000", "093201.766000", "093201.769000", "093201.772000", "093201.774000", "093201.778000", "093201.780000", "093201.783000", "093201.786000", "093201.789000", "093201.792000", "093201.795000", "093201.798000", "093201.801000", "093201.803000", "093201.806000", "093201.809000", "093201.812000", "093201.815000", "093201.818000", "093201.821000", "093201.824000", "093201.826000", "093201.829000", "093201.832000", "093201.835000", "093239.069000", "093239.072000", "093239.075000", "093239.078000", "093239.081000", "093239.084000", "093239.087000", "093239.089000", "093239.093000", "093239.103000", "093239.107000", "093239.110000", "093239.113000", "093239.117000", "093239.120000", "093239.123000", "093239.126000", "093239.129000", "093239.132000", "093239.134000", "093239.137000", "093239.140000", "093239.143000", "093239.146000", "093239.149000"],
