{
  "AcquisitionMatrixPE": 104,
  "AcquisitionNumber": 1,
  "AcquisitionTime": "09:33:6.110000",
  "BandwidthPerPixelPhaseEncode": 17.17,
  "BaseResolution": 104,
  "BodyPartExamined": "BRAIN",
  "CoilString": "HC1-7;NC1_2",
  "ConsistencyInfo": "N4_VE11C_LATEST_20160120",
  "ConversionSoftware": "dcm2niix",
  "ConversionSoftwareVersion": "v1.0.20190902",
  "DerivedVendorReportedEchoSpacing": 0.000560011,
  "DeviceSerialNumber": "167006",
  "DwellTime": 2.1e-06,
  "EchoTime": 0.037,
  "EchoTrainLength": 104,
  "EffectiveEchoSpacing": 0.000560011,
  "FlipAngle": 52,
  "ImageComments": "Unaliased_MB4_PE3_LB",
  "ImageOrientationPatientDICOM": [0.999553, 0.0241198, 0.0176663, -0.0122125, 0.868742, -0.495114],
  "ImageType": [
    "ORIGINAL",
    "PRIMARY",
    "M",
    "MB",
    "ND",
    "MOSAIC"
],
  "ImagingFrequency": 123.259,
  "InPlanePhaseEncodingDirectionDICOM": "COL",
  "InstitutionAddress": "Chemin_Queen-Mary_4565_Montreal_District_CA_H3W_1W5",
  "InstitutionName": "IUGM",
  "InstitutionalDepartmentName": "Department",
  "MRAcquisitionType": "2D",
  "MagneticFieldStrength": 3,
  "Manufacturer": "Siemens",
  "ManufacturersModelName": "Prisma_fit",
  "Modality": "MR",
  "MultibandAccelerationFactor": 4,
  "PartialFourier": 1,
  "PatientPosition": "HFS",
  "PercentPhaseFOV": 100,
  "PhaseEncodingDirection": "j",
  "PhaseEncodingSteps": 104,
  "PhaseResolution": 1,
  "PixelBandwidth": 2290,
  "ProcedureStepDescription": "games_shinobi",
  "ProtocolName": "func_task-shinobi_run-3",
  "PulseSequenceDetails": "%CustomerSeq%_cmrr_mbep2d_bold",
  "ReceiveCoilActiveElements": "HC1-7;NC1,2",
  "ReceiveCoilName": "HeadNeck_64",
  "ReconMatrixPE": 104,
  "RepetitionTime": 1.49,
  "SAR": 0.0334369,
  "ScanOptions": "FS",
  "ScanningSequence": "EP",
  "SequenceName": "epfid2d1_104",
  "SequenceVariant": "SK_SS",
  "SeriesDescription": "func_task-shinobi_run-3",
  "SeriesNumber": 13,
  "ShimSetting": [626, -7194, -8881, 392, 15, -189, -14, -24],
  "SliceThickness": 2,
  "SliceTiming": [0, 0.7825, 0.0975, 0.88, 0.195, 0.98, 0.2925, 1.0775, 0.39, 1.175, 0.49, 1.2725, 0.5875, 1.37, 0.685, 0, 0.7825, 0.0975, 0.88, 0.195, 0.98, 0.2925, 1.0775, 0.39, 1.175, 0.49, 1.2725, 0.5875, 1.37, 0.685, 0, 0.7825, 0.0975, 0.88, 0.195, 0.98, 0.2925, 1.0775, 0.39, 1.175, 0.49, 1.2725, 0.5875, 1.37, 0.685, 0, 0.7825, 0.0975, 0.88, 0.195, 0.98, 0.2925, 1.0775, 0.39, 1.175, 0.49, 1.2725, 0.5875, 1.37, 0.685],
  "SoftwareVersions": "syngo_MR_E11",
  "SpacingBetweenSlices": 2,
  "StationName": "MRC35049",
  "TaskName": "shinobi",
  "TotalReadoutTime": 0.0576811,
  "TxRefAmp": 246.469,
  "WipMemBlock": "4026bde9-fa94-46de-9b9d-88bd80fda3d9||Sequence: R016 ve11c/master r/e634e98; Dec 19 2017 11:00:25 by eja",
  "dcmmeta_affine": [
    [-1.9991059303283691, -0.024424906820058823, 0.054579079151153564, 106.79802703857422],
    [-0.04823954030871391, 1.7374838590621948, -0.98935467004776, -49.62031555175781],
    [0.03533268719911575, 0.9902288317680359, 1.7372963428497314, -105.40050506591797],
    [0.0, 0.0, 0.0, 1.0]
],
  "dcmmeta_reorient_transform": [
    [0.0, -1.0, 0.0, 103.0],
    [1.0, 0.0, 0.0, 0.0],
    [0.0, 0.0, 1.0, 0.0],
    [0.0, 0.0, 0.0, 1.0]
],
  "dcmmeta_shape": [104, 104, 60, 497],
  "dcmmeta_slice_dim": 2,
  "dcmmeta_version": 0.6,
  "global": {
    "const": {
      "AcquisitionMatrix": [104, 0, 0, 104],
      "AngioFlag": "N",
      "BitsAllocated": 16,
      "BitsStored": 16,
      "BodyPartExamined": "BRAIN",
      "Columns": 832,
      "EchoNumbers": 1,
      "EchoTime": 37.0,
      "EchoTrainLength": 104,
      "FlipAngle": 52.0,
      "HighBit": 15,
      "ImageOrientationPatient": [0.99955296857236, 0.02411977011396, 0.01766634392922, -0.0122124536122, 0.8687419429935, -0.4951144236039],
      "ImagePositionPatient": [-823.06615309424, -779.34385164696, 344.17526740777],
      "ImageType": [
        "ORIGINAL",
        "PRIMARY",
        "M",
        "MB",
        "ND",
        "MOSAIC"
],
      "ImagedNucleus": "1H",
      "ImagingFrequency": 123.259052,
      "InPlanePhaseEncodingDirection": "COL",
      "MRAcquisitionType": "2D",
      "MagneticFieldStrength": 3.0,
      "Manufacturer": "SIEMENS",
      "ManufacturerModelName": "Prisma_fit",
      "Modality": "MR",
      "NumberOfAverages": 1.0,
      "NumberOfPhaseEncodingSteps": 104,
      "PercentPhaseFieldOfView": 100.0,
      "PercentSampling": 100.0,
      "PerformedProcedureStepStartTime": "085907.686000",
      "PhotometricInterpretation": "MONOCHROME2",
      "PixelBandwidth": 2290.0,
      "PixelRepresentation": 0,
      "PixelSpacing": [2.0, 2.0],
      "ProtocolName": "func_task-shinobi_run-3",
      "RepetitionTime": 1490.0,
      "Rows": 832,
      "SAR": 0.03343694100804,
      "SamplesPerPixel": 1,
      "ScanOptions": "FS",
      "ScanningSequence": "EP",
      "SequenceName": "epfid2d1_104",
      "SequenceVariant": [
        "SK",
        "SS"
],
      "SeriesDescription": "func_task-shinobi_run-3",
      "SeriesNumber": 13,
      "SeriesTime": "093421.644000",
      "SliceLocation": -64.095439511054,
      "SliceThickness": 2.0,
      "SmallestImagePixelValue": 0,
      "SoftwareVersions": "syngo MR E11",
      "SpacingBetweenSlices": 1.9999999927295,
      "SpecificCharacterSet": "ISO_IR 100",
      "StudyID": "1",
      "StudyTime": "085907.508000",
      "TransmitCoilName": "Body",
      "VariableFlipAngleFlag": "N",
      "WindowCenterWidthExplanation": "Algo1",
      "dBdt": 0.0},
    "slices": {}
  },
  "time": {
    "samples": {
      "AcquisitionNumber": [1, 2, 3, 4, 5, 6, 7, 8, 9, 10, 11, 12, 13, 14, 15, 16, 17, 18, 19, 20, 21, 22, 23, 24, 25, 26, 27, 28, 29, 30, 31, 32, 33, 34, 35, 36, 37, 38, 39, 40, 41, 42, 43, 44, 45, 46, 47, 48, 49, 50, 51, 52, 53, 54, 55, 56, 57, 58, 59, 60, 61, 62, 63, 64, 65, 66, 67, 68, 69, 70, 71, 72, 73, 74, 75, 76, 77, 78, 79, 80, 81, 82, 83, 84, 85, 86, 87, 88, 89, 90, 91, 92, 93, 94, 95, 96, 97, 98, 99, 100, 101, 102, 103, 104, 105, 106, 107, 108, 109, 110, 111, 112, 113, 114, 115, 116, 117, 118, 119, 120, 121, 122, 123, 124, 125, 126, 127, 128, 129, 130, 131, 132, 133, 134, 135, 136, 137, 138, 139, 140, 141, 142, 143, 144, 145, 146, 147, 148, 149, 150, 151, 152, 153, 154, 155, 156, 157, 158, 159, 160, 161, 162, 163, 164, 165, 166, 167, 168, 169, 170, 171, 172, 173, 174, 175, 176, 177, 178, 179, 180, 181, 182, 183, 184, 185, 186, 187, 188, 189, 190, 191, 192, 193, 194, 195, 196, 197, 198, 199, 200, 201, 202, 203, 204, 205, 206, 207, 208, 209, 210, 211, 212, 213, 214, 215, 216, 217, 218, 219, 220, 221, 222, 223, 224, 225, 226, 227, 228, 229, 230, 231, 232, 233, 234, 235, 236, 237, 238, 239, 240, 241, 242, 243, 244, 245, 246, 247, 248, 249, 250, 251, 252, 253, 254, 255, 256, 257, 258, 259, 260, 261, 262, 263, 264, 265, 266, 267, 268, 269, 270, 271, 272, 273, 274, 275, 276, 277, 278, 279, 280, 281, 282, 283, 284, 285, 286, 287, 288, 289, 290, 291, 292, 293, 294, 295, 296, 297, 298, 299, 300, 301, 302, 303, 304, 305, 306, 307, 308, 309, 310, 311, 312, 313, 314, 315, 316, 317, 318, 319, 320, 321, 322, 323, 324, 325, 326, 327, 328, 329, 330, 331, 332, 333, 334, 335, 336, 337, 338, 339, 340, 341, 342, 343, 344, 345, 346, 347, 348, 349, 350, 351, 352, 353, 354, 355, 356, 357, 358, 359, 360, 361, 362, 363, 364, 365, 366, 367, 368, 369, 370, 371, 372, 373, 374, 375, 376, 377, 378, 379, 380, 381, 382, 383, 384, 385, 386, 387, 388, 389, 390, 391, 392, 393, 394, 395, 396, 397, 398, 399, 400, 401, 402, 403, 404, 405, 406, 407, 408, 409, 410, 411, 412, 413, 414, 415, 416, 417, 418, 419, 420, 421, 422, 423, 424, 425, 426, 427, 428, 429, 430, 431, 432, 433, 434, 435, 436, 437, 438, 439, 440, 441, 442, 443, 444, 445, 446, 447, 448, 449, 450, 451, 452, 453, 454, 455, 456, 457, 458, 459, 460, 461, 462, 463, 464, 465, 466, 467, 468, 469, 470, 471, 472, 473, 474, 475, 476, 477, 478, 479, 480, 481, 482, 483, 484, 485, 486, 487, 488, 489, 490, 491, 492, 493, 494, 495, 496, 497],
      "AcquisitionTime": ["093306.110000", "093307.600000", "093309.090000", "093310.580000", "093312.070000", "093313.560000", "093315.050000", "093316.540000", "093318.030000", "093319.520000", "093321.010000", "093322.500000", "093323.990000", "093325.480000", "093326.970000", "093328.460000", "093329.950000", "093331.440000", "093332.930000", "093334.420000", "093335.910000", "093337.400000", "093338.890000", "093340.380000", "093341.870000", "093343.360000", "093344.850000", "093346.340000", "093347.830000", "093349.320000", "093350.810000", "093352.300000", "093353.790000", "093355.280000", "093356.770000", "093358.260000", "093359.750000", "093401.240000", "093402.730000", "093404.220000", "093405.710000", "093407.200000", "093408.690000", "093410.180000", "093411.670000", "093413.160000", "093414.650000", "093416.140000", "093417.630000", "093419.120000", "093420.610000", "093422.100000", "093423.590000", "093425.080000", "093426.570000", "093428.060000", "093429.550000", "093431.040000", "093432.530000", "093434.020000", "093435.510000", "093437.000000", "093438.490000", "093439.980000", "093441.470000", "093442.960000", "093444.450000", "093445.940000", "093447.430000", "093448.920000", "093450.410000", "093451.900000", "093453.390000", "093454.880000", "093456.370000", "093457.860000", "093459.350000", "093500.840000", "093502.330000", "093503.820000", "093505.310000", "093506.800000", "093508.290000", "093509.780000", "093511.270000", "093512.760000", "093514.250000", "093515.740000", "093517.230000", "093518.720000", "093520.210000", "093521.700000", "093523.190000", "093524.680000", "093526.170000", "093527.660000", "093529.150000", "093530.640000", "093532.130000", "093533.620000", "093535.110000", "093536.600000", "093538.090000", "093539.580000", "093541.070000", "093542.560000", "093544.050000", "093545.540000", "093547.030000", "093548.520000", "093550.010000", "093551.500000", "093552.990000", "093554.480000", "093555.970000", "093557.460000", "093558.950000", "093600.440000", "093601.930000", "093603.420000", "093604.910000", "093606.400000", "093607.890000", "093609.380000", "093610.870000", "093612.360000", "093613.850000", "093615.340000", "093616.830000", "093618.320000", "093619.810000", "093621.300000", "093622.790000", "093624.280000", "093625.770000", "093627.260000", "093628.750000", "093630.240000", "093631.730000", "093633.220000", "093634.710000", "093636.200000", "093637.690000", "093639.180000", "093640.670000", "093642.160000", "093643.650000", "093645.140000", "093646.630000", "093648.120000", "093649.610000", "093651.100000", "093652.590000", "093654.080000", "093655.570000", "093657.060000", "093658.550000", "093700.040000", "093701.530000", "093703.020000", "093704.510000", "093706.000000", "093707.490000", "093708.980000", "093710.470000", "093711.960000", "093713.450000", "093714.940000", "093716.430000", "093717.920000", "093719.410000", "093720.900000", "093722.390000", "093723.880000", "093725.370000", "093726.860000", "093728.350000", "093729.840000", "093731.330000", "093732.820000", "093734.310000", "093735.800000", "093737.290000", "093738.780000", "093740.270000", "093741.760000", "093743.250000", "093744.740000", "093746.230000", "093747.720000", "093749.210000", "093750.700000", "093752.190000", "093753.680000", "093755.170000", "093756.660000", "093758.150000", "093759.640000", "093801.130000", "093802.620000", "093804.110000", "093805.600000", "093807.090000", "093808.580000", "093810.070000", "093811.560000", "093813.050000", "093814.540000", "093816.030000", "093817.520000", "093819.010000", "093820.500000", "093821.990000", "093823.480000", "093824.970000", "093826.460000", "093827.950000", "093829.440000", "093830.930000", "093832.420000", "093833.910000", "093835.400000", "093836.890000", "093838.380000", "093839.870000", "093841.360000", "093842.850000", "093844.340000", "093845.830000", "093847.320000", "093848.810000", "093850.300000", "093851.790000", "093853.280000", "093854.770000", "093856.260000", "093857.750000", "093859.240000", "093900.730000", "093902.220000", "093903.710000", "093905.200000", "093906.690000", "093908.180000", "093909.670000", "093911.160000", "093912.650000", "093914.140000", "093915.630000", "093917.120000", "093918.610000", "093920.100000", "093921.590000", "093923.080000", "093924.570000", "093926.060000", "093927.550000", "093929.040000", "093930.530000", "093932.020000", "093933.510000", "093935.000000", "093936.490000", "093937.980000", "093939.470000", "093940.960000", "093942.450000", "093943.940000", "093945.430000", "093946.920000", "093948.410000", "093949.900000", "093951.390000", "093952.880000", "093954.370000", "093955.860000", "093957.350000", "093958.840000", "094000.330000", "094001.820000", "094003.310000", "094004.800000", "094006.290000", "094007.780000", "094009.270000", "094010.760000", "094012.250000", "094013.740000", "094015.230000", "094016.720000", "094018.210000", "094019.700000", "094021.190000", "094022.680000", "094024.170000", "094025.660000", "094027.150000", "094028.640000", "094030.130000", "094031.620000", "094033.110000", "094034.600000", "094036.090000", "094037.580000", "094039.070000", "094040.560000", "094042.050000", "094043.540000", "094045.030000", "094046.520000", "094048.010000", "094049.500000", "094050.990000", "094052.480000", "094053.970000", "094055.460000", "094056.950000", "094058.440000", "094059.930000", "094101.420000", "094102.910000", "094104.400000", "094105.890000", "094107.380000", "094108.870000", "094110.360000", "094111.850000", "094113.340000", "094114.830000", "094116.320000", "094117.810000", "094119.300000", "094120.790000", "094122.280000", "094123.770000", "094125.260000", "094126.750000", "094128.240000", "094129.730000", "094131.220000", "094132.710000", "094134.200000", "094135.690000", "094137.180000", "094138.670000", "094140.160000", "094141.650000", "094143.140000", "094144.630000", "094146.120000", "094147.610000", "094149.100000", "094150.590000", "094152.080000", "094153.570000", "094155.060000", "094156.550000", "094158.040000", "094159.530000", "094201.020000", "094202.510000", "094204.000000", "094205.490000", "094206.980000", "094208.470000", "094209.960000", "094211.450000", "094212.940000", "094214.430000", "094215.920000", "094217.410000", "094218.900000", "094220.390000", "094221.880000", "094223.370000", "094224.860000", "094226.350000", "094227.840000", "094229.330000", "094230.820000", "094232.310000", "094233.800000", "094235.290000", "094236.780000", "094238.270000", "094239.760000", "094241.250000", "094242.740000", "094244.230000", "094245.720000", "094247.210000", "094248.700000", "094250.190000", "094251.680000", "094253.170000", "094254.660000", "094256.150000", "094257.640000", "094259.130000", "094300.620000", "094302.110000", "094303.600000", "094305.090000", "094306.580000", "094308.070000", "094309.560000", "094311.050000", "094312.540000", "094314.030000", "094315.520000", "094317.010000", "094318.500000", "094319.990000", "094321.480000", "094322.970000", "094324.460000", "094325.950000", "094327.440000", "094328.930000", "094330.420000", "094331.910000", "094333.400000", "094334.890000", "094336.380000", "094337.870000", "094339.360000", "094340.850000", "094342.340000", "094343.830000", "094345.320000", "094346.810000", "094348.300000", "094349.790000", "094351.280000", "094352.770000", "094354.260000", "094355.750000", "094357.240000", "094358.730000", "094400.220000", "094401.710000", "094403.200000", "094404.690000", "094406.180000", "094407.670000", "094409.160000", "094410.650000", "094412.140000", "094413.630000", "094415.120000", "094416.610000", "094418.100000", "094419.590000", "094421.080000", "094422.570000", "094424.060000", "094425.550000", "094427.040000", "094428.530000", "094430.020000", "094431.510000", "094433.000000", "094434.490000", "094435.980000", "094437.470000", "094438.960000", "094440.450000", "094441.940000", "094443.430000", "094444.920000", "094446.410000", "094447.900000", "094449.390000", "094450.880000", "094452.370000", "094453.860000", "094455.350000", "094456.840000", "094458.330000", "094459.820000", "094501.310000", "094502.800000", "094504.290000", "094505.780000", "094507.270000", "094508.760000", "094510.250000", "094511.740000", "094513.230000", "094514.720000", "094516.210000", "094517.700000", "094519.190000", "094520.680000", "094522.170000", "094523.660000", "094525.150000"],
      "ContentTime": ["093421.647000", "093421.650000", "093421.656000", "093421.659000", "093421.661000", "093421.664000", "093421.667000", "093421.670000", "093421.673000", "093421.681000", "093421.684000", "093421.686000", "093421.689000", "093421.695000", "093421.698000", "093421.707000", "093421.710000", "093421.719000", "093421.722000", "093421.725000", "093421.727000", "093441.618000", "093441.621000", "093441.624000", "093441.627000", "093441.630000", "093441.632000", "093441.635000", "093441.638000", "093441.641000", "093441.644000", "093441.647000", "093441.650000", "093441.653000", "093441.655000", "093441.658000", "093441.661000", "093441.664000", "093441.667000", "093441.681000", "093441.684000", "093501.618000", "093501.622000", "093501.625000", "093501.628000", "093501.631000", "093501.634000", "093501.645000", "093501.647000", "093501.650000", "093501.653000", "093501.656000", "093501.659000", "093501.662000", "093501.665000", "093501.668000", "093501.670000", "093501.673000", "093501.676000", "093501.679000", "093501.682000", "093521.618000", "093521.621000", "093521.624000", "093521.627000", "093521.630000", "093521.633000", "093521.635000", "093521.638000", "093521.641000", "093521.644000", "093521.647000", "093521.650000", "093521.652000", "093521.655000", "093521.658000", "093521.661000", "093521.664000", "093521.667000", "093521.670000", "093521.673000", "093521.675000", "093541.618000", "093541.621000", "093541.624000", "093541.626000", "093541.629000", "093541.632000", "093541.635000", "093541.638000", "093541.641000", "093541.644000", "093541.647000", "093541.649000", "093541.652000", "093541.655000", "093541.658000", "093541.661000", "093541.664000", "093541.667000", "093541.669000", "093541.672000", "093621.618000", "093621.621000", "093621.624000", "093621.627000", "093621.629000", "093621.632000", "093621.635000", "093621.638000", "093621.641000", "093621.643000", "093621.646000", "093621.649000", "093621.652000", "093621.655000", "093621.658000", "093621.660000", "093621.663000", "093621.666000", "093621.669000", "093621.672000", "093621.675000", "093621.677000", "093621.680000", "093621.683000", "093621.686000", "093621.689000", "093621.692000", "093621.694000", "093701.618000", "093701.621000", "093701.624000", "093701.627000", "093701.629000", "093701.632000", "093701.635000", "093701.638000", "093701.641000", "093701.644000", "093701.646000", "093701.649000", "093701.652000", "093701.655000", "093701.664000", "093701.667000", "093701.670000", "093701.673000", "093701.676000", "093701.679000", "093701.682000", "093701.684000", "093701.687000", "093701.690000", "093701.693000", "093701.696000", "093701.699000", "093741.618000", "093741.621000", "093741.624000", "093741.626000", "093741.629000", "093741.632000", "093741.635000", "093741.638000", "093741.641000", "093741.643000", "093741.646000", "093741.649000", "093741.652000", "093741.655000", "093741.658000", "093741.661000", "093741.664000", "093741.667000", "093741.669000", "093741.672000", "093741.675000", "093741.678000", "093741.681000", "093741.684000", "093741.687000", "093741.690000", "093741.692000", "093821.618000", "093821.621000", "093821.624000", "093821.627000", "093821.629000", "093821.632000", "093821.635000", "093821.638000", "093821.641000", "093821.643000", "093821.646000", "093821.649000", "093821.652000", "093821.655000", "093821.658000", "093821.661000", "093821.663000", "093821.666000", "093821.669000", "093821.672000", "093821.675000", "093821.678000", "093821.687000", "093821.689000", "093821.692000", "093821.695000", "093821.698000", "093901.618000", "093901.621000", "093901.624000", "093901.627000", "093901.630000", "093901.633000", "093901.635000", "093901.638000", "093901.641000", "093901.644000", "093901.647000", "093901.650000", "093901.653000", "093901.656000", "093901.659000", "093901.662000", "093901.665000", "093901.668000", "093901.671000", "093901.674000", "093901.677000", "093901.679000", "093901.682000", "093901.685000", "093901.688000", "093901.691000", "093901.694000", "093941.618000", "093941.621000", "093941.636000", "093941.639000", "093941.642000", "093941.645000", "093941.648000", "093941.651000", "093941.653000", "093941.656000", "093941.659000", "093941.662000", "093941.665000", "093941.668000", "093941.670000", "093941.673000", "093941.676000", "093941.679000", "093941.682000", "093941.685000", "093941.688000", "093941.691000", "093941.693000", "093941.696000", "093941.699000", "093941.702000", "094021.618000", "094021.621000", "094021.624000", "094021.627000", "094021.630000", "094021.632000", "094021.635000", "094021.638000", "094021.641000", "094021.644000", "094021.647000", "094021.649000", "094021.652000", "094021.655000", "094021.658000", "094021.661000", "094021.664000", "094021.666000", "094021.669000", "094021.672000", "094021.675000", "094021.678000", "094021.681000", "094021.683000", "094021.686000", "094021.689000", "094021.692000", "094101.618000", "094101.621000", "094101.624000", "094101.627000", "094101.630000", "094101.632000", "094101.635000", "094101.638000", "094101.641000", "094101.644000", "094101.647000", "094101.650000", "094101.653000", "094101.656000", "094101.659000", "094101.661000", "094101.664000", "094101.667000", "094101.670000", "094101.673000", "094101.676000", "094101.679000", "094101.681000", "094101.684000", "094101.687000", "094101.690000", "094101.693000", "094141.618000", "094141.621000", "094141.624000", "094141.627000", "094141.629000", "094141.632000", "094141.635000", "094141.638000", "094141.641000", "094141.644000", "094141.647000", "094141.649000", "094141.652000", "094141.655000", "094141.658000", "094141.661000", "094141.664000", "094141.667000", "094141.669000", "094141.672000", "094141.675000", "094141.678000", "094141.681000", "094141.684000", "094141.687000", "094141.689000", "094141.692000", "094221.618000", "094221.621000", "094221.624000", "094221.627000", "094221.630000", "094221.632000", "094221.635000", "094221.638000", "094221.641000", "094221.644000", "094221.647000", "094221.649000", "094221.652000", "094221.655000", "094221.658000", "094221.661000", "094221.663000", "094221.666000", "094221.669000", "094221.672000", "094221.675000", "094221.678000", "094221.681000", "094221.683000", "094221.686000", "094221.689000", "094221.692000", "094301.618000", "094301.621000", "094301.624000", "094301.627000", "094301.630000", "094301.632000", "094301.635000", "094301.638000", "094301.648000", "094301.650000", "094301.653000", "094301.656000", "094301.659000", "094301.662000", "094301.665000", "094301.668000", "094301.671000", "094301.674000", "094301.676000", "094301.679000", "094301.682000", "094301.685000", "094301.688000", "094301.691000", "094301.693000", "094301.696000", "094301.699000", "094341.619000", "094341.622000", "094341.625000", "094341.628000", "094341.631000", "094341.634000", "094341.637000", "094341.640000", "094341.643000", "094341.646000", "094341.649000", "094341.652000", "094341.655000", "094341.658000", "094341.661000", "094341.664000", "094341.699000", "094341.703000", "094341.705000", "094341.716000", "094341.719000", "094341.721000", "094341.724000", "094341.727000", "094341.730000", "094341.733000", "094421.618000", "094421.621000", "094421.624000", "094421.627000", "094421.629000", "094421.632000", "094421.635000", "094421.638000", "094421.641000", "094421.644000", "094421.647000", "094421.650000", "094421.652000", "094421.655000", "094421.658000", "094421.661000", "094421.664000", "094421.667000", "094421.670000", "094421.672000", "094421.675000", "094421.678000", "094421.681000", "094421.684000", "094421.687000", "094421.689000", "094421.692000", "094501.618000", "094501.621000", "094501.624000", "094501.627000", "094501.630000", "094501.632000", "094501.635000", "094501.638000", "094501.641000", "094501.644000", "094501.647000", "094501.649000", "094501.652000", "094501.655000", "094501.658000", "094501.661000", "094501.664000", "094501.667000", "094501.669000", "094501.672000", "094501.675000", "094501.678000", "094501.681000", "094501.684000", "094501.686000", "094501.689000", "094501.692000", "094528.562000", "094528.566000", "094528.568000", "094528.571000", "094528.574000", "094528.577000", "094528.580000", "094528.583000", "094528.586000", "094528.589000", "094528.591000", "094528.594000", "094528.597000", "094528.600000", "094528.603000", "094528.605000", "094528.608000", "094528.611000"],
