{
  "AcquisitionMatrixPE": 104,
  "AcquisitionNumber": 1,
  "AcquisitionTime": "10:10:30.330000",
  "BandwidthPerPixelPhaseEncode": 17.17,
  "BaseResolution": 104,
  "BodyPartExamined": "BRAIN",
  "CoilCombinationMethod": "Sum of Squares",
  "ConsistencyInfo": "N4_VE11C_LATEST_20160120",
  "ConversionSoftware": "dcm2niix",
  "ConversionSoftwareVersion": "v1.0.20211006",
  "DerivedVendorReportedEchoSpacing": 0.000560011,
  "DeviceSerialNumber": "167006",
  "DwellTime": 2.1e-06,
  "EchoTime": 0.037,
  "EchoTrainLength": 104,
  "EffectiveEchoSpacing": 0.000560011,
  "FlipAngle": 52,
  "HeudiconvVersion": "0.10.0",
  "ImageComments": "Unaliased MB4/PE3/LB",
  "ImageOrientationPatientDICOM": [0.998985, -0.00396863, -0.0448753, -0.00645119, 0.973244, -0.229683],
  "ImageOrientationText": "Tra>Cor(-13.3)>Sag(-2.6)",
  "ImageType": [
    "ORIGINAL",
    "PRIMARY",
    "M",
    "MB",
    "ND",
    "MOSAIC"
],
  "ImagingFrequency": 123.259,
  "InPlanePhaseEncodingDirectionDICOM": "COL",
  "InstitutionAddress": "Chemin Queen-Mary 4565,Montreal,District,CA,H3W 1W5",
  "InstitutionName": "IUGM",
  "InstitutionalDepartmentName": "Department",
  "MRAcquisitionType": "2D",
  "MagneticFieldStrength": 3,
  "Manufacturer": "Siemens",
  "ManufacturersModelName": "Prisma_fit",
  "MatrixCoilMode": "SENSE",
  "Modality": "MR",
  "MultibandAccelerationFactor": 4,
  "PartialFourier": 1,
  "PatientPosition": "HFS",
  "PercentPhaseFOV": 100,
  "PercentSampling": 100,
  "PhaseEncodingDirection": "j",
  "PhaseEncodingSteps": 104,
  "PhaseResolution": 1,
  "PixelBandwidth": 2290,
  "ProcedureStepDescription": "games^shinobi",
  "ProtocolName": "func_task-shinobi_run-5",
  "PulseSequenceDetails": "%CustomerSeq%\\cmrr_mbep2d_bold",
  "ReceiveCoilActiveElements": "HC1-7;NC1,2",
  "ReceiveCoilName": "HeadNeck_64",
  "ReconMatrixPE": 104,
  "RepetitionTime": 1.49,
  "SAR": 0.0269309,
  "ScanOptions": "FS",
  "ScanningSequence": "EP",
  "SequenceName": "epfid2d1_104",
  "SequenceVariant": "SK\\SS",
  "SeriesDescription": "func_task-shinobi_run-5",
  "SeriesNumber": 17,
  "ShimSetting": [598, -7244, -8819, 611, -63, -247, -1, 72],
  "SliceThickness": 2,
  "SliceTiming": [0, 0.7825, 0.0975, 0.8825, 0.195, 0.98, 0.2925, 1.0775, 0.3925, 1.175, 0.49, 1.2725, 0.5875, 1.3725, 0.685, 0, 0.7825, 0.0975, 0.8825, 0.195, 0.98, 0.2925, 1.0775, 0.3925, 1.175, 0.49, 1.2725, 0.5875, 1.3725, 0.685, 0, 0.7825, 0.0975, 0.8825, 0.195, 0.98, 0.2925, 1.0775, 0.3925, 1.175, 0.49, 1.2725, 0.5875, 1.3725, 0.685, 0, 0.7825, 0.0975, 0.8825, 0.195, 0.98, 0.2925, 1.0775, 0.3925, 1.175, 0.49, 1.2725, 0.5875, 1.3725, 0.685],
  "SoftwareVersions": "syngo MR E11",
  "SpacingBetweenSlices": 2,
  "StationName": "MRC35049",
  "TaskName": "shinobi",
  "TotalReadoutTime": 0.0576811,
  "TxRefAmp": 211.375,
  "WipMemBlock": "7296078f-1683-40d8-802f-e66d6912e4f3||Sequence: R016 ve11c/master r/e634e98; Dec 19 2017 11:00:25 by eja",
  "dcmmeta_affine": [
    [-1.997969388961792, -0.012902389280498028, -0.08917233347892761, 106.06049346923828],
    [0.007937259040772915, 1.9464882612228394, -0.4594782888889313, -74.50177001953125],
    [-0.08975063264369965, 0.45936569571495056, 1.9444608688354492, -46.24811935424805],
    [0.0, 0.0, 0.0, 1.0]
],
  "dcmmeta_reorient_transform": [
    [0.0, -1.0, 0.0, 103.0],
    [1.0, 0.0, 0.0, 0.0],
    [0.0, 0.0, 1.0, 0.0],
    [0.0, 0.0, 0.0, 1.0]
],
  "dcmmeta_shape": [104, 104, 60, 470],
  "dcmmeta_slice_dim": 2,
  "dcmmeta_version": 0.6,
  "global": {
    "const": {
      "AcquisitionMatrix": [104, 0, 0, 104],
      "AngioFlag": "N",
      "BitsAllocated": 16,
      "BitsStored": 16,
      "BodyPartExamined": "BRAIN",
      "Columns": 832,
      "EchoNumbers": 1,
      "EchoTime": 37.0,
      "EchoTrainLength": 104,
      "FlipAngle": 52.0,
      "HighBit": 15,
      "ImageOrientationPatient": [0.99898471257478, -0.0039686293277, -0.0448753164127, -0.0064511947499, 0.97324414932772, -0.2296828419488],
      "ImagePositionPatient": [-827.2959518156, -831.61910596154, 200.94488470495],
      "ImageType": [
        "ORIGINAL",
        "PRIMARY",
        "M",
        "MB",
        "ND",
        "MOSAIC"
],
      "ImagedNucleus": "1H",
      "ImagingFrequency": 123.258991,
      "InPlanePhaseEncodingDirection": "COL",
      "MRAcquisitionType": "2D",
      "MagneticFieldStrength": 3.0,
      "Manufacturer": "SIEMENS",
      "ManufacturerModelName": "Prisma_fit",
      "Modality": "MR",
      "NumberOfAverages": 1.0,
      "NumberOfPhaseEncodingSteps": 104,
      "PercentPhaseFieldOfView": 100.0,
      "PercentSampling": 100.0,
      "PerformedProcedureStepStartTime": "090640.118000",
      "PhotometricInterpretation": "MONOCHROME2",
      "PixelBandwidth": 2290.0,
      "PixelRepresentation": 0,
      "PixelSpacing": [2.0, 2.0],
      "ProtocolName": "func_task-shinobi_run-5",
      "RepetitionTime": 1490.0,
      "Rows": 832,
      "SAR": 0.02693089991554,
      "SamplesPerPixel": 1,
      "ScanOptions": "FS",
      "ScanningSequence": "EP",
      "SequenceName": "epfid2d1_104",
      "SequenceVariant": [
        "SK",
        "SS"
],
      "SeriesDescription": "func_task-shinobi_run-5",
      "SeriesNumber": 17,
      "SeriesTime": "101151.894000",
      "SliceLocation": -32.576687694881,
      "SliceThickness": 2.0,
      "SmallestImagePixelValue": 0,
      "SoftwareVersions": "syngo MR E11",
      "SpacingBetweenSlices": 2.0000000050758,
      "SpecificCharacterSet": "ISO_IR 100",
      "StudyID": "1",
      "StudyTime": "090639.993000",
      "TransmitCoilName": "Body",
      "VariableFlipAngleFlag": "N",
      "WindowCenterWidthExplanation": "Algo1",
      "dBdt": 0.0},
    "slices": {}
  },
  "time": {
    "samples": {
      "AcquisitionNumber": [1, 2, 3, 4, 5, 6, 7, 8, 9, 10, 11, 12, 13, 14, 15, 16, 17, 18, 19, 20, 21, 22, 23, 24, 25, 26, 27, 28, 29, 30, 31, 32, 33, 34, 35, 36, 37, 38, 39, 40, 41, 42, 43, 44, 45, 46, 47, 48, 49, 50, 51, 52, 53, 54, 55, 56, 57, 58, 59, 60, 61, 62, 63, 64, 65, 66, 67, 68, 69, 70, 71, 72, 73, 74, 75, 76, 77, 78, 79, 80, 81, 82, 83, 84, 85, 86, 87, 88, 89, 90, 91, 92, 93, 94, 95, 96, 97, 98, 99, 100, 101, 102, 103, 104, 105, 106, 107, 108, 109, 110, 111, 112, 113, 114, 115, 116, 117, 118, 119, 120, 121, 122, 123, 124, 125, 126, 127, 128, 129, 130, 131, 132, 133, 134, 135, 136, 137, 138, 139, 140, 141, 142, 143, 144, 145, 146, 147, 148, 149, 150, 151, 152, 153, 154, 155, 156, 157, 158, 159, 160, 161, 162, 163, 164, 165, 166, 167, 168, 169, 170, 171, 172, 173, 174, 175, 176, 177, 178, 179, 180, 181, 182, 183, 184, 185, 186, 187, 188, 189, 190, 191, 192, 193, 194, 195, 196, 197, 198, 199, 200, 201, 202, 203, 204, 205, 206, 207, 208, 209, 210, 211, 212, 213, 214, 215, 216, 217, 218, 219, 220, 221, 222, 223, 224, 225, 226, 227, 228, 229, 230, 231, 232, 233, 234, 235, 236, 237, 238, 239, 240, 241, 242, 243, 244, 245, 246, 247, 248, 249, 250, 251, 252, 253, 254, 255, 256, 257, 258, 259, 260, 261, 262, 263, 264, 265, 266, 267, 268, 269, 270, 271, 272, 273, 274, 275, 276, 277, 278, 279, 280, 281, 282, 283, 284, 285, 286, 287, 288, 289, 290, 291, 292, 293, 294, 295, 296, 297, 298, 299, 300, 301, 302, 303, 304, 305, 306, 307, 308, 309, 310, 311, 312, 313, 314, 315, 316, 317, 318, 319, 320, 321, 322, 323, 324, 325, 326, 327, 328, 329, 330, 331, 332, 333, 334, 335, 336, 337, 338, 339, 340, 341, 342, 343, 344, 345, 346, 347, 348, 349, 350, 351, 352, 353, 354, 355, 356, 357, 358, 359, 360, 361, 362, 363, 364, 365, 366, 367, 368, 369, 370, 371, 372, 373, 374, 375, 376, 377, 378, 379, 380, 381, 382, 383, 384, 385, 386, 387, 388, 389, 390, 391, 392, 393, 394, 395, 396, 397, 398, 399, 400, 401, 402, 403, 404, 405, 406, 407, 408, 409, 410, 411, 412, 413, 414, 415, 416, 417, 418, 419, 420, 421, 422, 423, 424, 425, 426, 427, 428, 429, 430, 431, 432, 433, 434, 435, 436, 437, 438, 439, 440, 441, 442, 443, 444, 445, 446, 447, 448, 449, 450, 451, 452, 453, 454, 455, 456, 457, 458, 459, 460, 461, 462, 463, 464, 465, 466, 467, 468, 469, 470],
      "AcquisitionTime": ["101030.330000", "101031.820000", "101033.310000", "101034.800000", "101036.290000", "101037.780000", "101039.270000", "101040.760000", "101042.250000", "101043.740000", "101045.230000", "101046.720000", "101048.210000", "101049.700000", "101051.190000", "101052.680000", "101054.170000", "101055.660000", "101057.150000", "101058.640000", "101100.130000", "101101.620000", "101103.110000", "101104.600000", "101106.090000", "101107.580000", "101109.070000", "101110.560000", "101112.050000", "101113.540000", "101115.030000", "101116.520000", "101118.010000", "101119.500000", "101120.990000", "101122.480000", "101123.970000", "101125.460000", "101126.950000", "101128.440000", "101129.930000", "101131.420000", "101132.910000", "101134.400000", "101135.890000", "101137.380000", "101138.870000", "101140.360000", "101141.850000", "101143.340000", "101144.830000", "101146.320000", "101147.810000", "101149.300000", "101150.790000", "101152.280000", "101153.770000", "101155.260000", "101156.750000", "101158.240000", "101159.730000", "101201.220000", "101202.710000", "101204.200000", "101205.690000", "101207.180000", "101208.670000", "101210.160000", "101211.650000", "101213.140000", "101214.630000", "101216.120000", "101217.610000", "101219.100000", "101220.590000", "101222.080000", "101223.570000", "101225.060000", "101226.550000", "101228.040000", "101229.530000", "101231.020000", "101232.510000", "101234.000000", "101235.490000", "101236.980000", "101238.470000", "101239.960000", "101241.450000", "101242.940000", "101244.430000", "101245.920000", "101247.410000", "101248.900000", "101250.390000", "101251.880000", "101253.370000", "101254.860000", "101256.350000", "101257.840000", "101259.330000", "101300.820000", "101302.310000", "101303.800000", "101305.290000", "101306.780000", "101308.270000", "101309.760000", "101311.250000", "101312.740000", "101314.230000", "101315.720000", "101317.210000", "101318.700000", "101320.190000", "101321.680000", "101323.170000", "101324.660000", "101326.150000", "101327.640000", "101329.130000", "101330.620000", "101332.110000", "101333.600000", "101335.090000", "101336.580000", "101338.070000", "101339.560000", "101341.050000", "101342.540000", "101344.030000", "101345.520000", "101347.010000", "101348.500000", "101349.990000", "101351.480000", "101352.970000", "101354.460000", "101355.950000", "101357.440000", "101358.930000", "101400.420000", "101401.910000", "101403.400000", "101404.890000", "101406.380000", "101407.870000", "101409.360000", "101410.850000", "101412.340000", "101413.830000", "101415.320000", "101416.810000", "101418.300000", "101419.790000", "101421.280000", "101422.770000", "101424.260000", "101425.750000", "101427.240000", "101428.730000", "101430.220000", "101431.710000", "101433.200000", "101434.690000", "101436.180000", "101437.670000", "101439.160000", "101440.650000", "101442.140000", "101443.630000", "101445.120000", "101446.610000", "101448.100000", "101449.590000", "101451.080000", "101452.570000", "101454.060000", "101455.550000", "101457.040000", "101458.530000", "101500.020000", "101501.510000", "101503.000000", "101504.490000", "101505.980000", "101507.470000", "101508.960000", "101510.450000", "101511.940000", "101513.430000", "101514.920000", "101516.410000", "101517.900000", "101519.390000", "101520.880000", "101522.370000", "101523.860000", "101525.350000", "101526.840000", "101528.330000", "101529.820000", "101531.310000", "101532.800000", "101534.290000", "101535.780000", "101537.270000", "101538.760000", "101540.250000", "101541.740000", "101543.230000", "101544.720000", "101546.210000", "101547.700000", "101549.190000", "101550.680000", "101552.170000", "101553.660000", "101555.150000", "101556.640000", "101558.130000", "101559.620000", "101601.110000", "101602.600000", "101604.090000", "101605.580000", "101607.070000", "101608.560000", "101610.050000", "101611.540000", "101613.030000", "101614.520000", "101616.010000", "101617.500000", "101618.990000", "101620.480000", "101621.970000", "101623.460000", "101624.950000", "101626.440000", "101627.930000", "101629.420000", "101630.910000", "101632.400000", "101633.890000", "101635.380000", "101636.870000", "101638.360000", "101639.850000", "101641.340000", "101642.830000", "101644.320000", "101645.810000", "101647.300000", "101648.790000", "101650.280000", "101651.770000", "101653.260000", "101654.750000", "101656.240000", "101657.730000", "101659.220000", "101700.710000", "101702.200000", "101703.690000", "101705.180000", "101706.670000", "101708.160000", "101709.650000", "101711.140000", "101712.630000", "101714.120000", "101715.610000", "101717.100000", "101718.590000", "101720.080000", "101721.570000", "101723.060000", "101724.550000", "101726.040000", "101727.530000", "101729.020000", "101730.510000", "101732.000000", "101733.490000", "101734.980000", "101736.470000", "101737.960000", "101739.450000", "101740.940000", "101742.430000", "101743.920000", "101745.410000", "101746.900000", "101748.390000", "101749.880000", "101751.370000", "101752.860000", "101754.350000", "101755.840000", "101757.330000", "101758.820000", "101800.310000", "101801.800000", "101803.290000", "101804.780000", "101806.270000", "101807.760000", "101809.250000", "101810.740000", "101812.230000", "101813.720000", "101815.210000", "101816.700000", "101818.190000", "101819.680000", "101821.170000", "101822.660000", "101824.150000", "101825.640000", "101827.130000", "101828.620000", "101830.110000", "101831.600000", "101833.090000", "101834.580000", "101836.070000", "101837.560000", "101839.050000", "101840.540000", "101842.030000", "101843.520000", "101845.010000", "101846.500000", "101847.990000", "101849.480000", "101850.970000", "101852.460000", "101853.950000", "101855.440000", "101856.930000", "101858.420000", "101859.910000", "101901.400000", "101902.890000", "101904.380000", "101905.870000", "101907.360000", "101908.850000", "101910.340000", "101911.830000", "101913.320000", "101914.810000", "101916.300000", "101917.790000", "101919.280000", "101920.770000", "101922.260000", "101923.750000", "101925.240000", "101926.730000", "101928.220000", "101929.710000", "101931.200000", "101932.690000", "101934.180000", "101935.670000", "101937.160000", "101938.650000", "101940.140000", "101941.630000", "101943.120000", "101944.610000", "101946.100000", "101947.590000", "101949.080000", "101950.570000", "101952.060000", "101953.550000", "101955.040000", "101956.530000", "101958.020000", "101959.510000", "102001.000000", "102002.490000", "102003.980000", "102005.470000", "102006.960000", "102008.450000", "102009.940000", "102011.430000", "102012.920000", "102014.410000", "102015.900000", "102017.390000", "102018.880000", "102020.370000", "102021.860000", "102023.350000", "102024.840000", "102026.330000", "102027.820000", "102029.310000", "102030.800000", "102032.290000", "102033.780000", "102035.270000", "102036.760000", "102038.250000", "102039.740000", "102041.230000", "102042.720000", "102044.210000", "102045.700000", "102047.190000", "102048.680000", "102050.170000", "102051.660000", "102053.150000", "102054.640000", "102056.130000", "102057.620000", "102059.110000", "102100.600000", "102102.090000", "102103.580000", "102105.070000", "102106.560000", "102108.050000", "102109.540000", "102111.030000", "102112.520000", "102114.010000", "102115.500000", "102116.990000", "102118.480000", "102119.970000", "102121.460000", "102122.950000", "102124.440000", "102125.930000", "102127.420000", "102128.910000", "102130.400000", "102131.890000", "102133.380000", "102134.870000", "102136.360000", "102137.850000", "102139.340000", "102140.830000", "102142.320000", "102143.810000", "102145.300000", "102146.790000", "102148.280000", "102149.770000", "102151.260000", "102152.750000", "102154.240000", "102155.730000", "102157.220000", "102158.710000", "102200.200000", "102201.690000", "102203.180000", "102204.670000", "102206.160000", "102207.650000", "102209.140000"],
      "ContentTime": ["101151.897000", "101151.900000", "101151.903000", "101151.906000", "101151.909000", "101151.912000", "101151.915000", "101151.917000", "101151.920000", "101151.923000", "101151.932000", "101151.935000", "101151.938000", "101151.941000", "101151.944000", "101151.947000", "101151.950000", "101151.952000", "101151.955000", "101151.958000", "101151.961000", "101151.964000", "101151.966000", "101151.969000", "101151.972000", "101151.975000", "101211.853000", "101211.856000", "101211.859000", "101211.861000", "101211.864000", "101211.867000", "101211.870000", "101211.873000", "101211.876000", "101211.878000", "101211.881000", "101211.884000", "101211.887000", "101211.890000", "101211.893000", "101211.896000", "101211.909000", "101211.912000", "101211.915000", "101211.918000", "101231.853000", "101231.856000", "101231.859000", "101231.862000", "101231.864000", "101231.867000", "101231.870000", "101231.873000", "101231.876000", "101231.879000", "101231.882000", "101231.884000", "101231.887000", "101231.890000", "101231.893000", "101231.896000", "101231.909000", "101231.919000", "101231.922000", "101231.925000", "101231.927000", "101251.853000", "101251.858000", "101251.861000", "101251.863000", "101251.866000", "101251.869000", "101251.872000", "101251.875000", "101251.878000", "101251.881000", "101251.884000", "101251.886000", "101251.889000", "101251.892000", "101251.895000", "101251.898000", "101251.901000", "101251.904000", "101251.906000", "101251.909000", "101311.853000", "101311.861000", "101311.864000", "101311.867000", "101311.869000", "101311.872000", "101311.875000", "101311.878000", "101311.881000", "101311.884000", "101311.886000", "101311.889000", "101311.892000", "101311.895000", "101311.898000", "101311.901000", "101311.904000", "101311.906000", "101311.909000", "101311.912000", "101351.853000", "101351.856000", "101351.859000", "101351.862000", "101351.865000", "101351.868000", "101351.870000", "101351.873000", "101351.876000", "101351.879000", "101351.882000", "101351.885000", "101351.895000", "101351.898000", "101351.901000", "101351.904000", "101351.907000", "101351.910000", "101351.912000", "101351.915000", "101351.918000", "101351.921000", "101351.924000", "101351.927000", "101351.929000", "101351.932000", "101351.935000", "101431.853000", "101431.856000", "101431.859000", "101431.862000", "101431.864000", "101431.867000", "101431.870000", "101431.873000", "101431.886000", "101431.889000", "101431.892000", "101431.895000", "101431.898000", "101431.901000", "101431.903000", "101431.906000", "101431.909000", "101431.912000", "101431.915000", "101431.918000", "101431.920000", "101431.923000", "101431.926000", "101431.929000", "101431.932000", "101431.935000", "101431.938000", "101511.853000", "101511.856000", "101511.859000", "101511.862000", "101511.865000", "101511.867000", "101511.870000", "101511.873000", "101511.876000", "101511.879000", "101511.882000", "101511.885000", "101511.887000", "101511.890000", "101511.893000", "101511.896000", "101511.899000", "101511.902000", "101511.904000", "101511.907000", "101511.910000", "101511.913000", "101511.916000", "101511.919000", "101511.922000", "101511.924000", "101511.927000", "101551.852000", "101551.855000", "101551.858000", "101551.861000", "101551.863000", "101551.866000", "101551.869000", "101551.872000", "101551.875000", "101551.878000", "101551.881000", "101551.884000", "101551.886000", "101551.889000", "101551.892000", "101551.895000", "101551.898000", "101551.901000", "101551.904000", "101551.906000", "101551.916000", "101551.919000", "101551.922000", "101551.924000", "101551.927000", "101551.930000", "101551.933000", "101631.853000", "101631.856000", "101631.859000", "101631.862000", "101631.865000", "101631.868000", "101631.871000", "101631.874000", "101631.876000", "101631.891000", "101631.894000", "101631.897000", "101631.900000", "101631.903000", "101631.906000", "101631.909000", "101631.911000", "101631.914000", "101631.917000", "101631.920000", "101631.923000", "101631.926000", "101631.929000", "101631.931000", "101631.934000", "101631.937000", "101711.853000", "101711.856000", "101711.859000", "101711.862000", "101711.865000", "101711.867000", "101711.870000", "101711.873000", "101711.876000", "101711.879000", "101711.882000", "101711.885000", "101711.887000", "101711.890000", "101711.893000", "101711.896000", "101711.899000", "101711.902000", "101711.904000", "101711.907000", "101711.910000", "101711.913000", "101711.916000", "101711.919000", "101711.922000", "101711.925000", "101711.927000", "101751.853000", "101751.856000", "101751.859000", "101751.862000", "101751.865000", "101751.867000", "101751.870000", "101751.873000", "101751.876000", "101751.879000", "101751.882000", "101751.885000", "101751.888000", "101751.891000", "101751.893000", "101751.896000", "101751.899000", "101751.902000", "101751.905000", "101751.908000", "101751.911000", "101751.913000", "101751.916000", "101751.923000", "101751.926000", "101751.928000", "101751.931000", "101811.852000", "101811.855000", "101811.858000", "101811.861000", "101811.863000", "101811.866000", "101811.869000", "101811.872000", "101811.875000", "101811.878000", "101811.881000", "101811.884000", "101811.886000", "101811.889000", "101851.853000", "101851.856000", "101851.859000", "101851.862000", "101851.865000", "101851.868000", "101851.870000", "101851.873000", "101851.876000", "101851.879000", "101851.882000", "101851.885000", "101851.888000", "101851.890000", "101851.893000", "101851.896000", "101851.900000", "101851.918000", "101851.921000", "101851.924000", "101851.927000", "101851.930000", "101851.933000", "101851.936000", "101851.939000", "101851.942000", "101931.853000", "101931.856000", "101931.859000", "101931.862000", "101931.865000", "101931.867000", "101931.870000", "101931.873000", "101931.876000", "101931.879000", "101931.882000", "101931.885000", "101931.888000", "101931.890000", "101931.893000", "101931.896000", "101931.899000", "101931.902000", "101931.905000", "101931.908000", "101931.910000", "101931.913000", "101931.916000", "101931.919000", "101931.922000", "101931.925000", "101931.928000", "102011.853000", "102011.856000", "102011.859000", "102011.862000", "102011.865000", "102011.868000", "102011.870000", "102011.873000", "102011.876000", "102011.879000", "102011.882000", "102011.885000", "102011.888000", "102011.890000", "102011.893000", "102011.896000", "102011.899000", "102011.902000", "102011.905000", "102011.908000", "102011.911000", "102011.914000", "102011.916000", "102011.919000", "102011.922000", "102011.925000", "102011.928000", "102051.853000", "102051.856000", "102051.859000", "102051.862000", "102051.865000", "102051.867000", "102051.870000", "102051.873000", "102051.876000", "102051.879000", "102051.882000", "102051.884000", "102051.887000", "102051.890000", "102051.893000", "102051.896000", "102051.899000", "102051.902000", "102051.905000", "102051.907000", "102051.910000", "102051.913000", "102051.916000", "102051.919000", "102051.922000", "102051.925000", "102051.927000", "102131.853000", "102131.856000", "102131.859000", "102131.862000", "102131.865000", "102131.867000", "102131.870000", "102131.873000", "102131.876000", "102131.879000", "102131.882000", "102131.885000", "102131.888000", "102131.890000", "102131.893000", "102131.896000", "102131.899000", "102131.902000", "102131.905000", "102131.908000", "102131.911000", "102131.914000", "102131.916000", "102131.919000", "102131.922000", "102131.925000", "102131.928000", "102211.853000", "102211.856000", "102211.859000", "102211.862000", "102211.865000", "102211.868000", "102211.871000", "102211.873000", "102211.876000", "102211.879000", "102211.882000", "102211.885000", "102211.888000", "102211.891000", "102211.894000", "102211.896000", "102211.899000", "102211.902000", "102211.905000", "102211.908000", "102211.911000", "102211.914000", "102211.916000", "102211.919000", "102211.922000", "102211.925000", "102211.928000"],
