{
  "AcquisitionMatrixPE": 104,
  "AcquisitionNumber": 1,
  "AcquisitionTime": "09:22:59.802500",
  "BandwidthPerPixelPhaseEncode": 17.17,
  "BaseResolution": 104,
  "BodyPartExamined": "BRAIN",
  "CoilCombinationMethod": "Sum of Squares",
  "ConsistencyInfo": "N4_VE11C_LATEST_20160120",
  "ConversionSoftware": "dcm2niix",
  "ConversionSoftwareVersion": "v1.0.20211006",
  "DerivedVendorReportedEchoSpacing": 0.000560011,
  "DeviceSerialNumber": "167006",
  "DwellTime": 2.1e-06,
  "EchoTime": 0.037,
  "EchoTrainLength": 104,
  "EffectiveEchoSpacing": 0.000560011,
  "FlipAngle": 52,
  "HeudiconvVersion": "0.10.0",
  "ImageComments": "Unaliased MB4/PE3/LB",
  "ImageOrientationPatientDICOM": [0.998985, -0.00396863, -0.0448753, -0.00645119, 0.973244, -0.229683],
  "ImageOrientationText": "Tra>Cor(-13.3)>Sag(-2.6)",
  "ImageType": [
    "ORIGINAL",
    "PRIMARY",
    "M",
    "MB",
    "ND",
    "MOSAIC"
],
  "ImagingFrequency": 123.259,
  "InPlanePhaseEncodingDirectionDICOM": "COL",
  "InstitutionAddress": "Chemin Queen-Mary 4565,Montreal,District,CA,H3W 1W5",
  "InstitutionName": "IUGM",
  "InstitutionalDepartmentName": "Department",
  "MRAcquisitionType": "2D",
  "MagneticFieldStrength": 3,
  "Manufacturer": "Siemens",
  "ManufacturersModelName": "Prisma_fit",
  "MatrixCoilMode": "SENSE",
  "Modality": "MR",
  "MultibandAccelerationFactor": 4,
  "PartialFourier": 1,
  "PatientPosition": "HFS",
  "PercentPhaseFOV": 100,
  "PercentSampling": 100,
  "PhaseEncodingDirection": "j",
  "PhaseEncodingSteps": 104,
  "PhaseResolution": 1,
  "PixelBandwidth": 2290,
  "ProcedureStepDescription": "games^shinobi",
  "ProtocolName": "func_task-shinobi_run-1",
  "PulseSequenceDetails": "%CustomerSeq%\\cmrr_mbep2d_bold",
  "ReceiveCoilActiveElements": "HC1-7;NC1,2",
  "ReceiveCoilName": "HeadNeck_64",
  "ReconMatrixPE": 104,
  "RepetitionTime": 1.49,
  "SAR": 0.0269309,
  "ScanOptions": "FS",
  "ScanningSequence": "EP",
  "SequenceName": "epfid2d1_104",
  "SequenceVariant": "SK\\SS",
  "SeriesDescription": "func_task-shinobi_run-1",
  "SeriesNumber": 9,
  "ShimSetting": [598, -7244, -8819, 611, -63, -247, -1, 72],
  "SliceThickness": 2,
  "SliceTiming": [0, 0.7825, 0.0975, 0.88, 0.195, 0.98, 0.2925, 1.0775, 0.3925, 1.175, 0.49, 1.2725, 0.5875, 1.37, 0.685, 0, 0.7825, 0.0975, 0.88, 0.195, 0.98, 0.2925, 1.0775, 0.3925, 1.175, 0.49, 1.2725, 0.5875, 1.37, 0.685, 0, 0.7825, 0.0975, 0.88, 0.195, 0.98, 0.2925, 1.0775, 0.3925, 1.175, 0.49, 1.2725, 0.5875, 1.37, 0.685, 0, 0.7825, 0.0975, 0.88, 0.195, 0.98, 0.2925, 1.0775, 0.3925, 1.175, 0.49, 1.2725, 0.5875, 1.37, 0.685],
  "SoftwareVersions": "syngo MR E11",
  "SpacingBetweenSlices": 2,
  "StationName": "MRC35049",
  "TaskName": "shinobi",
  "TotalReadoutTime": 0.0576811,
  "TxRefAmp": 211.375,
  "WipMemBlock": "a0ca8fec-41c2-4d38-86f4-5629386d13a7||Sequence: R016 ve11c/master r/e634e98; Dec 19 2017 11:00:25 by eja",
  "dcmmeta_affine": [
    [-1.997969388961792, -0.012902389280498028, -0.08917233347892761, 106.06049346923828],
    [0.007937259040772915, 1.9464882612228394, -0.4594782888889313, -74.50177001953125],
    [-0.08975063264369965, 0.45936569571495056, 1.9444608688354492, -46.24811935424805],
    [0.0, 0.0, 0.0, 1.0]
],
  "dcmmeta_reorient_transform": [
    [0.0, -1.0, 0.0, 103.0],
    [1.0, 0.0, 0.0, 0.0],
    [0.0, 0.0, 1.0, 0.0],
    [0.0, 0.0, 0.0, 1.0]
],
  "dcmmeta_shape": [104, 104, 60, 472],
  "dcmmeta_slice_dim": 2,
  "dcmmeta_version": 0.6,
  "global": {
    "const": {
      "AcquisitionMatrix": [104, 0, 0, 104],
      "AngioFlag": "N",
      "BitsAllocated": 16,
      "BitsStored": 16,
      "BodyPartExamined": "BRAIN",
      "Columns": 832,
      "EchoNumbers": 1,
      "EchoTime": 37.0,
      "EchoTrainLength": 104,
      "FlipAngle": 52.0,
      "HighBit": 15,
      "ImageOrientationPatient": [0.99898471257478, -0.0039686293277, -0.0448753164127, -0.0064511947499, 0.97324414932772, -0.2296828419488],
      "ImagePositionPatient": [-827.2959518156, -831.61910596154, 200.94488470495],
      "ImageType": [
        "ORIGINAL",
        "PRIMARY",
        "M",
        "MB",
        "ND",
        "MOSAIC"
],
      "ImagedNucleus": "1H",
      "ImagingFrequency": 123.258981,
      "InPlanePhaseEncodingDirection": "COL",
      "MRAcquisitionType": "2D",
      "MagneticFieldStrength": 3.0,
      "Manufacturer": "SIEMENS",
      "ManufacturerModelName": "Prisma_fit",
      "Modality": "MR",
      "NumberOfAverages": 1.0,
      "NumberOfPhaseEncodingSteps": 104,
      "PercentPhaseFieldOfView": 100.0,
      "PercentSampling": 100.0,
      "PerformedProcedureStepStartTime": "090640.118000",
      "PhotometricInterpretation": "MONOCHROME2",
      "PixelBandwidth": 2290.0,
      "PixelRepresentation": 0,
      "PixelSpacing": [2.0, 2.0],
      "ProtocolName": "func_task-shinobi_run-1",
      "RepetitionTime": 1490.0,
      "Rows": 832,
      "SAR": 0.02693089991554,
      "SamplesPerPixel": 1,
      "ScanOptions": "FS",
      "ScanningSequence": "EP",
      "SequenceName": "epfid2d1_104",
      "SequenceVariant": [
        "SK",
        "SS"
],
      "SeriesDescription": "func_task-shinobi_run-1",
      "SeriesNumber": 9,
      "SeriesTime": "092430.793000",
      "SliceLocation": -32.576687694881,
      "SliceThickness": 2.0,
      "SmallestImagePixelValue": 0,
      "SoftwareVersions": "syngo MR E11",
      "SpacingBetweenSlices": 2.0000000050758,
      "SpecificCharacterSet": "ISO_IR 100",
      "StudyID": "1",
      "StudyTime": "090639.993000",
      "TransmitCoilName": "Body",
      "VariableFlipAngleFlag": "N",
      "WindowCenterWidthExplanation": "Algo1",
      "dBdt": 0.0},
    "slices": {}
  },
  "time": {
    "samples": {
      "AcquisitionNumber": [1, 2, 3, 4, 5, 6, 7, 8, 9, 10, 11, 12, 13, 14, 15, 16, 17, 18, 19, 20, 21, 22, 23, 24, 25, 26, 27, 28, 29, 30, 31, 32, 33, 34, 35, 36, 37, 38, 39, 40, 41, 42, 43, 44, 45, 46, 47, 48, 49, 50, 51, 52, 53, 54, 55, 56, 57, 58, 59, 60, 61, 62, 63, 64, 65, 66, 67, 68, 69, 70, 71, 72, 73, 74, 75, 76, 77, 78, 79, 80, 81, 82, 83, 84, 85, 86, 87, 88, 89, 90, 91, 92, 93, 94, 95, 96, 97, 98, 99, 100, 101, 102, 103, 104, 105, 106, 107, 108, 109, 110, 111, 112, 113, 114, 115, 116, 117, 118, 119, 120, 121, 122, 123, 124, 125, 126, 127, 128, 129, 130, 131, 132, 133, 134, 135, 136, 137, 138, 139, 140, 141, 142, 143, 144, 145, 146, 147, 148, 149, 150, 151, 152, 153, 154, 155, 156, 157, 158, 159, 160, 161, 162, 163, 164, 165, 166, 167, 168, 169, 170, 171, 172, 173, 174, 175, 176, 177, 178, 179, 180, 181, 182, 183, 184, 185, 186, 187, 188, 189, 190, 191, 192, 193, 194, 195, 196, 197, 198, 199, 200, 201, 202, 203, 204, 205, 206, 207, 208, 209, 210, 211, 212, 213, 214, 215, 216, 217, 218, 219, 220, 221, 222, 223, 224, 225, 226, 227, 228, 229, 230, 231, 232, 233, 234, 235, 236, 237, 238, 239, 240, 241, 242, 243, 244, 245, 246, 247, 248, 249, 250, 251, 252, 253, 254, 255, 256, 257, 258, 259, 260, 261, 262, 263, 264, 265, 266, 267, 268, 269, 270, 271, 272, 273, 274, 275, 276, 277, 278, 279, 280, 281, 282, 283, 284, 285, 286, 287, 288, 289, 290, 291, 292, 293, 294, 295, 296, 297, 298, 299, 300, 301, 302, 303, 304, 305, 306, 307, 308, 309, 310, 311, 312, 313, 314, 315, 316, 317, 318, 319, 320, 321, 322, 323, 324, 325, 326, 327, 328, 329, 330, 331, 332, 333, 334, 335, 336, 337, 338, 339, 340, 341, 342, 343, 344, 345, 346, 347, 348, 349, 350, 351, 352, 353, 354, 355, 356, 357, 358, 359, 360, 361, 362, 363, 364, 365, 366, 367, 368, 369, 370, 371, 372, 373, 374, 375, 376, 377, 378, 379, 380, 381, 382, 383, 384, 385, 386, 387, 388, 389, 390, 391, 392, 393, 394, 395, 396, 397, 398, 399, 400, 401, 402, 403, 404, 405, 406, 407, 408, 409, 410, 411, 412, 413, 414, 415, 416, 417, 418, 419, 420, 421, 422, 423, 424, 425, 426, 427, 428, 429, 430, 431, 432, 433, 434, 435, 436, 437, 438, 439, 440, 441, 442, 443, 444, 445, 446, 447, 448, 449, 450, 451, 452, 453, 454, 455, 456, 457, 458, 459, 460, 461, 462, 463, 464, 465, 466, 467, 468, 469, 470, 471, 472],
      "AcquisitionTime": ["092259.802500", "092301.292500", "092302.782500", "092304.272500", "092305.762500", "092307.252500", "092308.742500", "092310.232500", "092311.722500", "092313.212500", "092314.702500", "092316.192500", "092317.682500", "092319.172500", "092320.662500", "092322.152500", "092323.642500", "092325.132500", "092326.622500", "092328.112500", "092329.602500", "092331.092500", "092332.582500", "092334.072500", "092335.562500", "092337.052500", "092338.542500", "092340.032500", "092341.522500", "092343.012500", "092344.502500", "092345.992500", "092347.482500", "092348.972500", "092350.462500", "092351.952500", "092353.442500", "092354.932500", "092356.422500", "092357.912500", "092359.402500", "092400.892500", "092402.382500", "092403.872500", "092405.362500", "092406.852500", "092408.342500", "092409.832500", "092411.322500", "092412.812500", "092414.302500", "092415.792500", "092417.282500", "092418.772500", "092420.262500", "092421.752500", "092423.242500", "092424.732500", "092426.222500", "092427.712500", "092429.202500", "092430.692500", "092432.182500", "092433.672500", "092435.162500", "092436.652500", "092438.142500", "092439.632500", "092441.122500", "092442.612500", "092444.102500", "092445.592500", "092447.082500", "092448.572500", "092450.062500", "092451.552500", "092453.042500", "092454.532500", "092456.022500", "092457.512500", "092459.002500", "092500.492500", "092501.982500", "092503.472500", "092504.962500", "092506.452500", "092507.942500", "092509.432500", "092510.922500", "092512.412500", "092513.902500", "092515.392500", "092516.882500", "092518.372500", "092519.862500", "092521.352500", "092522.842500", "092524.332500", "092525.822500", "092527.312500", "092528.802500", "092530.292500", "092531.782500", "092533.272500", "092534.762500", "092536.252500", "092537.742500", "092539.232500", "092540.722500", "092542.212500", "092543.702500", "092545.192500", "092546.682500", "092548.172500", "092549.662500", "092551.152500", "092552.642500", "092554.132500", "092555.622500", "092557.112500", "092558.602500", "092600.092500", "092601.582500", "092603.072500", "092604.562500", "092606.052500", "092607.542500", "092609.032500", "092610.522500", "092612.012500", "092613.502500", "092614.992500", "092616.482500", "092617.972500", "092619.462500", "092620.952500", "092622.442500", "092623.932500", "092625.422500", "092626.912500", "092628.402500", "092629.892500", "092631.382500", "092632.872500", "092634.362500", "092635.852500", "092637.342500", "092638.832500", "092640.322500", "092641.812500", "092643.302500", "092644.792500", "092646.282500", "092647.772500", "092649.262500", "092650.752500", "092652.242500", "092653.732500", "092655.222500", "092656.712500", "092658.202500", "092659.692500", "092701.182500", "092702.672500", "092704.162500", "092705.652500", "092707.142500", "092708.632500", "092710.122500", "092711.612500", "092713.102500", "092714.592500", "092716.082500", "092717.572500", "092719.062500", "092720.552500", "092722.042500", "092723.532500", "092725.022500", "092726.512500", "092728.002500", "092729.492500", "092730.982500", "092732.472500", "092733.962500", "092735.452500", "092736.942500", "092738.432500", "092739.922500", "092741.412500", "092742.902500", "092744.392500", "092745.882500", "092747.372500", "092748.862500", "092750.352500", "092751.842500", "092753.332500", "092754.822500", "092756.312500", "092757.802500", "092759.292500", "092800.782500", "092802.272500", "092803.762500", "092805.252500", "092806.742500", "092808.232500", "092809.722500", "092811.212500", "092812.702500", "092814.192500", "092815.682500", "092817.172500", "092818.662500", "092820.152500", "092821.642500", "092823.132500", "092824.622500", "092826.112500", "092827.602500", "092829.092500", "092830.582500", "092832.072500", "092833.562500", "092835.052500", "092836.542500", "092838.032500", "092839.522500", "092841.012500", "092842.502500", "092843.992500", "092845.482500", "092846.972500", "092848.462500", "092849.952500", "092851.442500", "092852.932500", "092854.422500", "092855.912500", "092857.402500", "092858.892500", "092900.382500", "092901.872500", "092903.362500", "092904.852500", "092906.342500", "092907.832500", "092909.322500", "092910.812500", "092912.302500", "092913.792500", "092915.282500", "092916.772500", "092918.262500", "092919.752500", "092921.242500", "092922.732500", "092924.222500", "092925.712500", "092927.202500", "092928.692500", "092930.182500", "092931.672500", "092933.162500", "092934.652500", "092936.142500", "092937.632500", "092939.122500", "092940.612500", "092942.102500", "092943.592500", "092945.082500", "092946.572500", "092948.062500", "092949.552500", "092951.042500", "092952.532500", "092954.022500", "092955.512500", "092957.002500", "092958.492500", "092959.982500", "093001.472500", "093002.962500", "093004.452500", "093005.942500", "093007.432500", "093008.922500", "093010.412500", "093011.902500", "093013.392500", "093014.882500", "093016.372500", "093017.862500", "093019.352500", "093020.842500", "093022.332500", "093023.822500", "093025.312500", "093026.802500", "093028.292500", "093029.782500", "093031.272500", "093032.762500", "093034.252500", "093035.742500", "093037.232500", "093038.722500", "093040.212500", "093041.702500", "093043.192500", "093044.682500", "093046.172500", "093047.662500", "093049.152500", "093050.642500", "093052.132500", "093053.622500", "093055.112500", "093056.602500", "093058.092500", "093059.582500", "093101.072500", "093102.562500", "093104.052500", "093105.542500", "093107.032500", "093108.522500", "093110.012500", "093111.502500", "093112.992500", "093114.482500", "093115.972500", "093117.462500", "093118.952500", "093120.442500", "093121.932500", "093123.422500", "093124.912500", "093126.402500", "093127.892500", "093129.382500", "093130.872500", "093132.362500", "093133.852500", "093135.342500", "093136.832500", "093138.322500", "093139.812500", "093141.302500", "093142.792500", "093144.282500", "093145.772500", "093147.262500", "093148.752500", "093150.242500", "093151.732500", "093153.222500", "093154.712500", "093156.202500", "093157.692500", "093159.182500", "093200.672500", "093202.162500", "093203.652500", "093205.142500", "093206.632500", "093208.122500", "093209.612500", "093211.102500", "093212.592500", "093214.082500", "093215.572500", "093217.062500", "093218.552500", "093220.042500", "093221.532500", "093223.022500", "093224.512500", "093226.002500", "093227.492500", "093228.982500", "093230.472500", "093231.962500", "093233.452500", "093234.942500", "093236.432500", "093237.922500", "093239.412500", "093240.902500", "093242.392500", "093243.882500", "093245.372500", "093246.862500", "093248.352500", "093249.842500", "093251.332500", "093252.822500", "093254.312500", "093255.802500", "093257.292500", "093258.782500", "093300.272500", "093301.762500", "093303.252500", "093304.742500", "093306.232500", "093307.722500", "093309.212500", "093310.702500", "093312.192500", "093313.682500", "093315.172500", "093316.662500", "093318.152500", "093319.642500", "093321.132500", "093322.622500", "093324.112500", "093325.602500", "093327.092500", "093328.582500", "093330.072500", "093331.562500", "093333.052500", "093334.542500", "093336.032500", "093337.522500", "093339.012500", "093340.502500", "093341.992500", "093343.482500", "093344.972500", "093346.462500", "093347.952500", "093349.442500", "093350.932500", "093352.422500", "093353.912500", "093355.402500", "093356.892500", "093358.382500", "093359.872500", "093401.362500", "093402.852500", "093404.342500", "093405.832500", "093407.322500", "093408.812500", "093410.302500", "093411.792500", "093413.282500", "093414.772500", "093416.262500", "093417.752500", "093419.242500", "093420.732500", "093422.222500", "093423.712500", "093425.202500", "093426.692500", "093428.182500", "093429.672500", "093431.162500", "093432.652500", "093434.142500", "093435.632500", "093437.122500", "093438.612500", "093440.102500", "093441.592500"],
      "ContentTime": ["092430.796000", "092430.799000", "092430.802000", "092430.805000", "092430.808000", "092430.811000", "092430.814000", "092430.819000", "092430.822000", "092430.824000", "092430.827000", "092430.830000", "092430.833000", "092430.836000", "092430.839000", "092430.841000", "092430.844000", "092430.847000", "092430.850000", "092430.853000", "092430.856000", "092430.858000", "092430.861000", "092430.864000", "092430.867000", "092430.870000", "092430.873000", "092430.876000", "092430.878000", "092430.881000", "092430.884000", "092430.887000", "092430.890000", "092430.898000", "092430.901000", "092430.904000", "092430.907000", "092450.767000", "092450.770000", "092450.773000", "092450.776000", "092450.778000", "092450.781000", "092450.784000", "092450.787000", "092450.790000", "092450.792000", "092450.795000", "092450.798000", "092450.801000", "092450.804000", "092450.807000", "092450.810000", "092450.813000", "092450.815000", "092450.830000", "092450.833000", "092510.768000", "092510.771000", "092510.774000", "092510.776000", "092510.779000", "092510.782000", "092510.785000", "092510.788000", "092510.791000", "092510.793000", "092510.796000", "092510.799000", "092510.802000", "092510.805000", "092510.808000", "092510.811000", "092510.813000", "092510.816000", "092510.819000", "092510.822000", "092530.768000", "092530.771000", "092530.774000", "092530.777000", "092530.779000", "092530.782000", "092530.785000", "092530.788000", "092530.791000", "092530.794000", "092530.797000", "092530.799000", "092530.802000", "092530.805000", "092530.808000", "092530.811000", "092530.814000", "092530.817000", "092530.819000", "092530.822000", "092610.767000", "092610.770000", "092610.773000", "092610.776000", "092610.778000", "092610.781000", "092610.784000", "092610.787000", "092610.790000", "092610.793000", "092610.796000", "092610.798000", "092610.801000", "092610.804000", "092610.807000", "092610.810000", "092610.813000", "092610.816000", "092610.818000", "092610.835000", "092610.838000", "092610.841000", "092610.843000", "092610.846000", "092610.849000", "092610.852000", "092610.855000", "092610.858000", "092610.867000", "092610.870000", "092650.767000", "092650.770000", "092650.773000", "092650.776000", "092650.779000", "092650.782000", "092650.785000", "092650.787000", "092650.790000", "092650.793000", "092650.796000", "092650.799000", "092650.802000", "092650.805000", "092650.807000", "092650.810000", "092650.813000", "092650.816000", "092650.819000", "092650.822000", "092650.825000", "092650.827000", "092650.830000", "092650.833000", "092650.836000", "092650.839000", "092650.841000", "092730.768000", "092730.771000", "092730.774000", "092730.777000", "092730.780000", "092730.782000", "092730.785000", "092730.788000", "092730.791000", "092730.794000", "092730.797000", "092730.799000", "092730.802000", "092730.805000", "092730.808000", "092730.811000", "092730.814000", "092730.817000", "092730.819000", "092730.822000", "092730.825000", "092730.828000", "092730.831000", "092730.834000", "092730.836000", "092730.839000", "092730.842000", "092810.767000", "092810.770000", "092810.773000", "092810.776000", "092810.779000", "092810.782000", "092810.784000", "092810.787000", "092810.790000", "092810.793000", "092810.796000", "092810.799000", "092810.801000", "092810.804000", "092810.807000", "092810.810000", "092810.813000", "092810.816000", "092810.819000", "092810.822000", "092810.824000", "092810.827000", "092810.830000", "092810.833000", "092810.836000", "092810.839000", "092810.841000", "092830.767000", "092830.770000", "092830.773000", "092830.776000", "092830.779000", "092830.781000", "092830.784000", "092830.787000", "092830.790000", "092830.793000", "092830.796000", "092830.799000", "092830.801000", "092910.767000", "092910.770000", "092910.773000", "092910.776000", "092910.779000", "092910.782000", "092910.784000", "092910.787000", "092910.790000", "092910.793000", "092910.796000", "092910.798000", "092910.801000", "092910.804000", "092910.807000", "092910.810000", "092910.813000", "092910.816000", "092910.819000", "092910.821000", "092910.824000", "092910.827000", "092910.830000", "092910.833000", "092910.836000", "092910.839000", "092910.842000", "092950.768000", "092950.771000", "092950.774000", "092950.777000", "092950.780000", "092950.782000", "092950.785000", "092950.788000", "092950.791000", "092950.794000", "092950.797000", "092950.799000", "092950.802000", "092950.805000", "092950.808000", "092950.811000", "092950.814000", "092950.817000", "092950.819000", "092950.822000", "092950.825000", "092950.828000", "092950.831000", "092950.834000", "092950.837000", "092950.839000", "092950.842000", "093030.767000", "093030.770000", "093030.773000", "093030.776000", "093030.779000", "093030.781000", "093030.784000", "093030.787000", "093030.790000", "093030.793000", "093030.796000", "093030.799000", "093030.801000", "093030.804000", "093030.807000", "093030.810000", "093030.813000", "093030.816000", "093030.819000", "093030.821000", "093030.824000", "093030.827000", "093030.830000", "093030.833000", "093030.835000", "093030.838000", "093030.841000", "093110.767000", "093110.770000", "093110.773000", "093110.776000", "093110.779000", "093110.781000", "093110.784000", "093110.787000", "093110.790000", "093110.793000", "093110.796000", "093110.799000", "093110.801000", "093110.804000", "093110.807000", "093110.810000", "093110.813000", "093110.816000", "093110.818000", "093110.821000", "093110.824000", "093110.827000", "093110.830000", "093110.833000", "093110.836000", "093110.838000", "093110.841000", "093150.767000", "093150.770000", "093150.773000", "093150.776000", "093150.779000", "093150.781000", "093150.784000", "093150.787000", "093150.790000", "093150.793000", "093150.796000", "093150.799000", "093150.802000", "093150.806000", "093150.810000", "093150.813000", "093150.816000", "093150.820000", "093150.823000", "093150.826000", "093150.828000", "093150.831000", "093150.834000", "093150.837000", "093150.840000", "093150.843000", "093230.768000", "093230.771000", "093230.774000", "093230.777000", "093230.780000", "093230.782000", "093230.785000", "093230.788000", "093230.791000", "093230.794000", "093230.797000", "093230.799000", "093230.802000", "093230.805000", "093230.808000", "093230.811000", "093230.814000", "093230.817000", "093230.819000", "093230.822000", "093230.825000", "093230.828000", "093230.831000", "093230.834000", "093230.837000", "093230.840000", "093230.843000", "093310.767000", "093310.770000", "093310.773000", "093310.776000", "093310.779000", "093310.782000", "093310.784000", "093310.787000", "093310.790000", "093310.793000", "093310.796000", "093310.799000", "093310.802000", "093310.804000", "093310.807000", "093310.810000", "093310.813000", "093310.816000", "093310.819000", "093310.821000", "093310.824000", "093310.827000", "093310.830000", "093310.833000", "093310.836000", "093310.838000", "093310.841000", "093350.767000", "093350.770000", "093350.773000", "093350.776000", "093350.779000", "093350.782000", "093350.784000", "093350.787000", "093350.790000", "093350.793000", "093350.796000", "093350.799000", "093350.802000", "093350.804000", "093350.807000", "093350.810000", "093350.813000", "093350.816000", "093350.819000", "093350.822000", "093350.824000", "093350.827000", "093350.830000", "093350.833000", "093350.836000", "093350.839000", "093350.841000", "093430.768000", "093430.771000", "093430.774000", "093430.777000", "093430.780000", "093430.789000", "093430.792000", "093430.795000", "093430.798000", "093430.801000", "093430.803000", "093430.806000", "093430.809000", "093430.812000", "093430.815000", "093430.818000", "093430.821000", "093430.823000", "093430.826000", "093430.829000", "093430.832000", "093430.835000", "093430.838000", "093430.841000", "093430.843000", "093430.846000", "093430.849000", "093443.904000", "093443.907000", "093443.910000", "093443.913000", "093443.916000", "093443.919000", "093443.922000", "093443.925000", "093443.928000"],
