{
  "AcquisitionMatrixPE": 104,
  "AcquisitionNumber": 1,
  "AcquisitionTime": "09:58:40.245000",
  "BandwidthPerPixelPhaseEncode": 17.17,
  "BaseResolution": 104,
  "BodyPartExamined": "BRAIN",
  "CoilCombinationMethod": "Sum of Squares",
  "ConsistencyInfo": "N4_VE11C_LATEST_20160120",
  "ConversionSoftware": "dcm2niix",
  "ConversionSoftwareVersion": "v1.0.20211006",
  "DerivedVendorReportedEchoSpacing": 0.000560011,
  "DeviceSerialNumber": "167006",
  "DwellTime": 2.1e-06,
  "EchoTime": 0.037,
  "EchoTrainLength": 104,
  "EffectiveEchoSpacing": 0.000560011,
  "FlipAngle": 52,
  "HeudiconvVersion": "0.10.0",
  "ImageComments": "Unaliased MB4/PE3/LB",
  "ImageOrientationPatientDICOM": [0.998985, -0.00396863, -0.0448753, -0.00645119, 0.973244, -0.229683],
  "ImageOrientationText": "Tra>Cor(-13.3)>Sag(-2.6)",
  "ImageType": [
    "ORIGINAL",
    "PRIMARY",
    "M",
    "MB",
    "ND",
    "MOSAIC"
],
  "ImagingFrequency": 123.259,
  "InPlanePhaseEncodingDirectionDICOM": "COL",
  "InstitutionAddress": "Chemin Queen-Mary 4565,Montreal,District,CA,H3W 1W5",
  "InstitutionName": "IUGM",
  "InstitutionalDepartmentName": "Department",
  "MRAcquisitionType": "2D",
  "MagneticFieldStrength": 3,
  "Manufacturer": "Siemens",
  "ManufacturersModelName": "Prisma_fit",
  "MatrixCoilMode": "SENSE",
  "Modality": "MR",
  "MultibandAccelerationFactor": 4,
  "PartialFourier": 1,
  "PatientPosition": "HFS",
  "PercentPhaseFOV": 100,
  "PercentSampling": 100,
  "PhaseEncodingDirection": "j",
  "PhaseEncodingSteps": 104,
  "PhaseResolution": 1,
  "PixelBandwidth": 2290,
  "ProcedureStepDescription": "games^shinobi",
  "ProtocolName": "func_task-shinobi_run-4",
  "PulseSequenceDetails": "%CustomerSeq%\\cmrr_mbep2d_bold",
  "ReceiveCoilActiveElements": "HC1-7;NC1,2",
  "ReceiveCoilName": "HeadNeck_64",
  "ReconMatrixPE": 104,
  "RepetitionTime": 1.49,
  "SAR": 0.0269309,
  "ScanOptions": "FS",
  "ScanningSequence": "EP",
  "SequenceName": "epfid2d1_104",
  "SequenceVariant": "SK\\SS",
  "SeriesDescription": "func_task-shinobi_run-4",
  "SeriesNumber": 15,
  "ShimSetting": [598, -7244, -8819, 611, -63, -247, -1, 72],
  "SliceThickness": 2,
  "SliceTiming": [0, 0.785, 0.1, 0.8825, 0.1975, 0.98, 0.295, 1.08, 0.3925, 1.1775, 0.49, 1.275, 0.59, 1.3725, 0.6875, 0, 0.785, 0.1, 0.8825, 0.1975, 0.98, 0.295, 1.08, 0.3925, 1.1775, 0.49, 1.275, 0.59, 1.3725, 0.6875, 0, 0.785, 0.1, 0.8825, 0.1975, 0.98, 0.295, 1.08, 0.3925, 1.1775, 0.49, 1.275, 0.59, 1.3725, 0.6875, 0, 0.785, 0.1, 0.8825, 0.1975, 0.98, 0.295, 1.08, 0.3925, 1.1775, 0.49, 1.275, 0.59, 1.3725, 0.6875],
  "SoftwareVersions": "syngo MR E11",
  "SpacingBetweenSlices": 2,
  "StationName": "MRC35049",
  "TaskName": "shinobi",
  "TotalReadoutTime": 0.0576811,
  "TxRefAmp": 211.375,
  "WipMemBlock": "0f612160-7bb4-4f5a-bc55-0d720cc5ffbc||Sequence: R016 ve11c/master r/e634e98; Dec 19 2017 11:00:25 by eja",
  "dcmmeta_affine": [
    [-1.997969388961792, -0.012902389280498028, -0.08917233347892761, 106.06049346923828],
    [0.007937259040772915, 1.9464882612228394, -0.4594782888889313, -74.50177001953125],
    [-0.08975063264369965, 0.45936569571495056, 1.9444608688354492, -46.24811935424805],
    [0.0, 0.0, 0.0, 1.0]
],
  "dcmmeta_reorient_transform": [
    [0.0, -1.0, 0.0, 103.0],
    [1.0, 0.0, 0.0, 0.0],
    [0.0, 0.0, 1.0, 0.0],
    [0.0, 0.0, 0.0, 1.0]
],
  "dcmmeta_shape": [104, 104, 60, 446],
  "dcmmeta_slice_dim": 2,
  "dcmmeta_version": 0.6,
  "global": {
    "const": {
      "AcquisitionMatrix": [104, 0, 0, 104],
      "AngioFlag": "N",
      "BitsAllocated": 16,
      "BitsStored": 16,
      "BodyPartExamined": "BRAIN",
      "Columns": 832,
      "EchoNumbers": 1,
      "EchoTime": 37.0,
      "EchoTrainLength": 104,
      "FlipAngle": 52.0,
      "HighBit": 15,
      "ImageOrientationPatient": [0.99898471257478, -0.0039686293277, -0.0448753164127, -0.0064511947499, 0.97324414932772, -0.2296828419488],
      "ImagePositionPatient": [-827.2959518156, -831.61910596154, 200.94488470495],
      "ImageType": [
        "ORIGINAL",
        "PRIMARY",
        "M",
        "MB",
        "ND",
        "MOSAIC"
],
      "ImagedNucleus": "1H",
      "ImagingFrequency": 123.25899,
      "InPlanePhaseEncodingDirection": "COL",
      "MRAcquisitionType": "2D",
      "MagneticFieldStrength": 3.0,
      "Manufacturer": "SIEMENS",
      "ManufacturerModelName": "Prisma_fit",
      "Modality": "MR",
      "NumberOfAverages": 1.0,
      "NumberOfPhaseEncodingSteps": 104,
      "PercentPhaseFieldOfView": 100.0,
      "PercentSampling": 100.0,
      "PerformedProcedureStepStartTime": "090640.118000",
      "PhotometricInterpretation": "MONOCHROME2",
      "PixelBandwidth": 2290.0,
      "PixelRepresentation": 0,
      "PixelSpacing": [2.0, 2.0],
      "ProtocolName": "func_task-shinobi_run-4",
      "RepetitionTime": 1490.0,
      "Rows": 832,
      "SAR": 0.02693089991554,
      "SamplesPerPixel": 1,
      "ScanOptions": "FS",
      "ScanningSequence": "EP",
      "SequenceName": "epfid2d1_104",
      "SequenceVariant": [
        "SK",
        "SS"
],
      "SeriesDescription": "func_task-shinobi_run-4",
      "SeriesNumber": 15,
      "SeriesTime": "095950.803000",
      "SliceLocation": -32.576687694881,
      "SliceThickness": 2.0,
      "SmallestImagePixelValue": 0,
      "SoftwareVersions": "syngo MR E11",
      "SpacingBetweenSlices": 2.0000000050758,
      "SpecificCharacterSet": "ISO_IR 100",
      "StudyID": "1",
      "StudyTime": "090639.993000",
      "TransmitCoilName": "Body",
      "VariableFlipAngleFlag": "N",
      "WindowCenterWidthExplanation": "Algo1",
      "dBdt": 0.0},
    "slices": {}
  },
  "time": {
    "samples": {
      "AcquisitionNumber": [1, 2, 3, 4, 5, 6, 7, 8, 9, 10, 11, 12, 13, 14, 15, 16, 17, 18, 19, 20, 21, 22, 23, 24, 25, 26, 27, 28, 29, 30, 31, 32, 33, 34, 35, 36, 37, 38, 39, 40, 41, 42, 43, 44, 45, 46, 47, 48, 49, 50, 51, 52, 53, 54, 55, 56, 57, 58, 59, 60, 61, 62, 63, 64, 65, 66, 67, 68, 69, 70, 71, 72, 73, 74, 75, 76, 77, 78, 79, 80, 81, 82, 83, 84, 85, 86, 87, 88, 89, 90, 91, 92, 93, 94, 95, 96, 97, 98, 99, 100, 101, 102, 103, 104, 105, 106, 107, 108, 109, 110, 111, 112, 113, 114, 115, 116, 117, 118, 119, 120, 121, 122, 123, 124, 125, 126, 127, 128, 129, 130, 131, 132, 133, 134, 135, 136, 137, 138, 139, 140, 141, 142, 143, 144, 145, 146, 147, 148, 149, 150, 151, 152, 153, 154, 155, 156, 157, 158, 159, 160, 161, 162, 163, 164, 165, 166, 167, 168, 169, 170, 171, 172, 173, 174, 175, 176, 177, 178, 179, 180, 181, 182, 183, 184, 185, 186, 187, 188, 189, 190, 191, 192, 193, 194, 195, 196, 197, 198, 199, 200, 201, 202, 203, 204, 205, 206, 207, 208, 209, 210, 211, 212, 213, 214, 215, 216, 217, 218, 219, 220, 221, 222, 223, 224, 225, 226, 227, 228, 229, 230, 231, 232, 233, 234, 235, 236, 237, 238, 239, 240, 241, 242, 243, 244, 245, 246, 247, 248, 249, 250, 251, 252, 253, 254, 255, 256, 257, 258, 259, 260, 261, 262, 263, 264, 265, 266, 267, 268, 269, 270, 271, 272, 273, 274, 275, 276, 277, 278, 279, 280, 281, 282, 283, 284, 285, 286, 287, 288, 289, 290, 291, 292, 293, 294, 295, 296, 297, 298, 299, 300, 301, 302, 303, 304, 305, 306, 307, 308, 309, 310, 311, 312, 313, 314, 315, 316, 317, 318, 319, 320, 321, 322, 323, 324, 325, 326, 327, 328, 329, 330, 331, 332, 333, 334, 335, 336, 337, 338, 339, 340, 341, 342, 343, 344, 345, 346, 347, 348, 349, 350, 351, 352, 353, 354, 355, 356, 357, 358, 359, 360, 361, 362, 363, 364, 365, 366, 367, 368, 369, 370, 371, 372, 373, 374, 375, 376, 377, 378, 379, 380, 381, 382, 383, 384, 385, 386, 387, 388, 389, 390, 391, 392, 393, 394, 395, 396, 397, 398, 399, 400, 401, 402, 403, 404, 405, 406, 407, 408, 409, 410, 411, 412, 413, 414, 415, 416, 417, 418, 419, 420, 421, 422, 423, 424, 425, 426, 427, 428, 429, 430, 431, 432, 433, 434, 435, 436, 437, 438, 439, 440, 441, 442, 443, 444, 445, 446],
      "AcquisitionTime": ["095840.245000", "095841.735000", "095843.225000", "095844.715000", "095846.205000", "095847.695000", "095849.185000", "095850.675000", "095852.165000", "095853.655000", "095855.145000", "095856.635000", "095858.125000", "095859.615000", "095901.105000", "095902.595000", "095904.085000", "095905.575000", "095907.065000", "095908.555000", "095910.045000", "095911.535000", "095913.025000", "095914.515000", "095916.005000", "095917.495000", "095918.985000", "095920.475000", "095921.965000", "095923.455000", "095924.945000", "095926.435000", "095927.925000", "095929.415000", "095930.905000", "095932.395000", "095933.885000", "095935.375000", "095936.865000", "095938.355000", "095939.845000", "095941.335000", "095942.825000", "095944.315000", "095945.805000", "095947.295000", "095948.785000", "095950.275000", "095951.765000", "095953.255000", "095954.745000", "095956.235000", "095957.725000", "095959.215000", "100000.705000", "100002.195000", "100003.685000", "100005.175000", "100006.665000", "100008.155000", "100009.645000", "100011.135000", "100012.625000", "100014.115000", "100015.605000", "100017.095000", "100018.585000", "100020.075000", "100021.565000", "100023.055000", "100024.545000", "100026.035000", "100027.525000", "100029.015000", "100030.505000", "100031.995000", "100033.485000", "100034.975000", "100036.465000", "100037.955000", "100039.445000", "100040.935000", "100042.425000", "100043.915000", "100045.405000", "100046.895000", "100048.385000", "100049.875000", "100051.365000", "100052.855000", "100054.345000", "100055.835000", "100057.325000", "100058.815000", "100100.305000", "100101.795000", "100103.285000", "100104.775000", "100106.265000", "100107.755000", "100109.245000", "100110.735000", "100112.225000", "100113.715000", "100115.205000", "100116.695000", "100118.185000", "100119.675000", "100121.165000", "100122.655000", "100124.145000", "100125.635000", "100127.125000", "100128.615000", "100130.105000", "100131.595000", "100133.085000", "100134.575000", "100136.065000", "100137.555000", "100139.045000", "100140.535000", "100142.025000", "100143.515000", "100145.005000", "100146.495000", "100147.985000", "100149.475000", "100150.965000", "100152.455000", "100153.945000", "100155.435000", "100156.925000", "100158.415000", "100159.905000", "100201.395000", "100202.885000", "100204.375000", "100205.865000", "100207.355000", "100208.845000", "100210.335000", "100211.825000", "100213.315000", "100214.805000", "100216.295000", "100217.785000", "100219.275000", "100220.765000", "100222.255000", "100223.745000", "100225.235000", "100226.725000", "100228.215000", "100229.705000", "100231.195000", "100232.685000", "100234.175000", "100235.665000", "100237.155000", "100238.645000", "100240.135000", "100241.625000", "100243.115000", "100244.605000", "100246.095000", "100247.585000", "100249.075000", "100250.565000", "100252.055000", "100253.545000", "100255.035000", "100256.525000", "100258.015000", "100259.505000", "100300.995000", "100302.485000", "100303.975000", "100305.465000", "100306.955000", "100308.445000", "100309.935000", "100311.425000", "100312.915000", "100314.405000", "100315.895000", "100317.385000", "100318.875000", "100320.365000", "100321.855000", "100323.345000", "100324.835000", "100326.325000", "100327.815000", "100329.305000", "100330.795000", "100332.285000", "100333.775000", "100335.265000", "100336.755000", "100338.245000", "100339.735000", "100341.225000", "100342.715000", "100344.205000", "100345.695000", "100347.185000", "100348.675000", "100350.165000", "100351.655000", "100353.145000", "100354.635000", "100356.125000", "100357.615000", "100359.105000", "100400.595000", "100402.085000", "100403.575000", "100405.065000", "100406.555000", "100408.045000", "100409.535000", "100411.025000", "100412.515000", "100414.005000", "100415.495000", "100416.985000", "100418.475000", "100419.965000", "100421.455000", "100422.945000", "100424.435000", "100425.925000", "100427.415000", "100428.905000", "100430.395000", "100431.885000", "100433.375000", "100434.865000", "100436.355000", "100437.845000", "100439.335000", "100440.825000", "100442.315000", "100443.805000", "100445.295000", "100446.785000", "100448.275000", "100449.765000", "100451.255000", "100452.745000", "100454.235000", "100455.725000", "100457.215000", "100458.705000", "100500.195000", "100501.685000", "100503.175000", "100504.665000", "100506.155000", "100507.645000", "100509.135000", "100510.625000", "100512.115000", "100513.605000", "100515.095000", "100516.585000", "100518.075000", "100519.565000", "100521.055000", "100522.545000", "100524.035000", "100525.525000", "100527.015000", "100528.505000", "100529.995000", "100531.485000", "100532.975000", "100534.465000", "100535.955000", "100537.445000", "100538.935000", "100540.425000", "100541.915000", "100543.405000", "100544.895000", "100546.385000", "100547.875000", "100549.365000", "100550.855000", "100552.345000", "100553.835000", "100555.325000", "100556.815000", "100558.305000", "100559.795000", "100601.285000", "100602.775000", "100604.265000", "100605.755000", "100607.245000", "100608.735000", "100610.225000", "100611.715000", "100613.205000", "100614.695000", "100616.185000", "100617.675000", "100619.165000", "100620.655000", "100622.145000", "100623.635000", "100625.125000", "100626.615000", "100628.105000", "100629.595000", "100631.085000", "100632.575000", "100634.065000", "100635.555000", "100637.045000", "100638.535000", "100640.025000", "100641.515000", "100643.005000", "100644.495000", "100645.985000", "100647.475000", "100648.965000", "100650.455000", "100651.945000", "100653.435000", "100654.925000", "100656.415000", "100657.905000", "100659.395000", "100700.885000", "100702.375000", "100703.865000", "100705.355000", "100706.845000", "100708.335000", "100709.825000", "100711.315000", "100712.805000", "100714.295000", "100715.785000", "100717.275000", "100718.765000", "100720.255000", "100721.745000", "100723.235000", "100724.725000", "100726.215000", "100727.705000", "100729.195000", "100730.685000", "100732.175000", "100733.665000", "100735.155000", "100736.645000", "100738.135000", "100739.625000", "100741.115000", "100742.605000", "100744.095000", "100745.585000", "100747.075000", "100748.565000", "100750.055000", "100751.545000", "100753.035000", "100754.525000", "100756.015000", "100757.505000", "100758.995000", "100800.485000", "100801.975000", "100803.465000", "100804.955000", "100806.445000", "100807.935000", "100809.425000", "100810.915000", "100812.405000", "100813.895000", "100815.385000", "100816.875000", "100818.365000", "100819.855000", "100821.345000", "100822.835000", "100824.325000", "100825.815000", "100827.305000", "100828.795000", "100830.285000", "100831.775000", "100833.265000", "100834.755000", "100836.245000", "100837.735000", "100839.225000", "100840.715000", "100842.205000", "100843.695000", "100845.185000", "100846.675000", "100848.165000", "100849.655000", "100851.145000", "100852.635000", "100854.125000", "100855.615000", "100857.105000", "100858.595000", "100900.085000", "100901.575000", "100903.065000", "100904.555000", "100906.045000", "100907.535000", "100909.025000", "100910.515000", "100912.005000", "100913.495000", "100914.985000", "100916.475000", "100917.965000", "100919.455000", "100920.945000", "100922.435000", "100923.925000", "100925.415000", "100926.905000", "100928.395000", "100929.885000", "100931.375000", "100932.865000", "100934.355000", "100935.845000", "100937.335000", "100938.825000", "100940.315000", "100941.805000", "100943.295000"],
      "ContentTime": ["095950.806000", "095950.809000", "095950.812000", "095950.815000", "095950.817000", "095950.820000", "095950.823000", "095950.826000", "095950.829000", "095950.832000", "095950.834000", "095950.837000", "095950.840000", "095950.843000", "095950.846000", "095950.849000", "100010.768000", "100010.771000", "100010.774000", "100010.777000", "100010.779000", "100010.782000", "100010.785000", "100010.788000", "100010.804000", "100010.806000", "100010.814000", "100010.817000", "100010.820000", "100010.822000", "100010.825000", "100010.828000", "100010.832000", "100010.835000", "100010.838000", "100010.840000", "100030.768000", "100030.771000", "100030.774000", "100030.777000", "100030.788000", "100030.791000", "100030.794000", "100030.797000", "100030.800000", "100030.802000", "100030.805000", "100030.808000", "100030.811000", "100030.814000", "100030.817000", "100030.820000", "100030.822000", "100030.829000", "100030.831000", "100030.834000", "100030.837000", "100050.767000", "100050.770000", "100050.773000", "100050.776000", "100050.778000", "100050.781000", "100050.784000", "100050.787000", "100050.790000", "100050.793000", "100050.795000", "100050.798000", "100050.801000", "100050.804000", "100050.807000", "100050.810000", "100050.812000", "100050.815000", "100050.818000", "100050.821000", "100110.767000", "100110.770000", "100110.773000", "100110.776000", "100110.778000", "100110.781000", "100110.784000", "100110.787000", "100110.790000", "100110.793000", "100110.796000", "100110.804000", "100110.807000", "100110.810000", "100110.813000", "100110.816000", "100110.819000", "100110.822000", "100110.824000", "100110.827000", "100150.767000", "100150.770000", "100150.773000", "100150.776000", "100150.778000", "100150.781000", "100150.784000", "100150.787000", "100150.790000", "100150.793000", "100150.796000", "100150.798000", "100150.801000", "100150.804000", "100150.807000", "100150.810000", "100150.813000", "100150.815000", "100150.818000", "100150.821000", "100150.824000", "100150.827000", "100150.830000", "100150.833000", "100150.835000", "100150.838000", "100150.841000", "100150.844000", "100150.847000", "100150.850000", "100230.768000", "100230.771000", "100230.774000", "100230.777000", "100230.780000", "100230.782000", "100230.785000", "100230.788000", "100230.791000", "100230.794000", "100230.797000", "100230.800000", "100230.802000", "100230.805000", "100230.808000", "100230.811000", "100230.814000", "100230.817000", "100230.820000", "100230.822000", "100230.825000", "100230.828000", "100230.831000", "100230.843000", "100230.846000", "100230.849000", "100230.851000", "100310.767000", "100310.770000", "100310.773000", "100310.776000", "100310.779000", "100310.782000", "100310.785000", "100310.788000", "100310.790000", "100310.793000", "100310.796000", "100310.799000", "100310.802000", "100310.814000", "100310.817000", "100310.820000", "100310.823000", "100310.826000", "100310.837000", "100310.840000", "100310.843000", "100310.846000", "100310.849000", "100310.852000", "100310.855000", "100310.858000", "100310.861000", "100350.767000", "100350.770000", "100350.773000", "100350.776000", "100350.779000", "100350.782000", "100350.784000", "100350.787000", "100350.790000", "100350.793000", "100350.796000", "100350.799000", "100350.801000", "100350.804000", "100350.807000", "100350.810000", "100350.813000", "100350.816000", "100350.819000", "100350.821000", "100350.824000", "100350.827000", "100350.830000", "100350.833000", "100350.836000", "100350.839000", "100350.841000", "100430.767000", "100430.770000", "100430.773000", "100430.776000", "100430.779000", "100430.781000", "100430.784000", "100430.787000", "100430.790000", "100430.793000", "100430.796000", "100430.799000", "100430.802000", "100430.812000", "100430.822000", "100430.825000", "100430.828000", "100430.830000", "100430.833000", "100430.836000", "100430.839000", "100430.842000", "100430.845000", "100430.847000", "100430.850000", "100430.853000", "100430.856000", "100510.768000", "100510.771000", "100510.774000", "100510.777000", "100510.780000", "100510.783000", "100510.786000", "100510.789000", "100510.792000", "100510.795000", "100510.798000", "100510.800000", "100510.803000", "100510.806000", "100510.809000", "100510.812000", "100510.815000", "100510.818000", "100510.821000", "100510.824000", "100510.827000", "100510.830000", "100510.833000", "100510.835000", "100510.838000", "100510.841000", "100510.844000", "100550.767000", "100550.770000", "100550.773000", "100550.776000", "100550.779000", "100550.781000", "100550.784000", "100550.787000", "100550.790000", "100550.793000", "100550.796000", "100550.799000", "100550.802000", "100550.804000", "100550.807000", "100550.810000", "100550.813000", "100550.816000", "100550.819000", "100550.821000", "100550.824000", "100550.827000", "100550.830000", "100550.833000", "100550.836000", "100550.839000", "100630.767000", "100630.770000", "100630.773000", "100630.776000", "100630.778000", "100630.781000", "100630.784000", "100630.787000", "100630.790000", "100630.793000", "100630.796000", "100630.799000", "100630.802000", "100630.804000", "100630.807000", "100630.810000", "100630.813000", "100630.816000", "100630.819000", "100630.822000", "100630.824000", "100630.827000", "100630.837000", "100630.840000", "100630.843000", "100630.846000", "100630.849000", "100710.768000", "100710.771000", "100710.774000", "100710.777000", "100710.780000", "100710.782000", "100710.785000", "100710.788000", "100710.791000", "100710.794000", "100710.797000", "100710.800000", "100710.803000", "100710.806000", "100710.809000", "100710.811000", "100710.814000", "100710.817000", "100710.820000", "100710.823000", "100710.826000", "100710.829000", "100710.832000", "100710.834000", "100710.837000", "100710.840000", "100710.843000", "100750.767000", "100750.770000", "100750.773000", "100750.776000", "100750.779000", "100750.781000", "100750.784000", "100750.787000", "100750.790000", "100750.793000", "100750.796000", "100750.799000", "100750.801000", "100750.804000", "100750.807000", "100750.810000", "100750.813000", "100750.816000", "100750.818000", "100750.821000", "100750.824000", "100750.827000", "100750.830000", "100750.833000", "100750.836000", "100750.839000", "100750.841000", "100830.767000", "100830.770000", "100830.773000", "100830.776000", "100830.779000", "100830.782000", "100830.785000", "100830.787000", "100830.790000", "100830.793000", "100830.796000", "100830.799000", "100830.807000", "100830.810000", "100830.813000", "100830.816000", "100830.818000", "100830.821000", "100830.824000", "100830.827000", "100830.830000", "100830.833000", "100830.836000", "100830.838000", "100830.841000", "100830.844000", "100830.847000", "100910.768000", "100910.771000", "100910.774000", "100910.777000", "100910.786000", "100910.789000", "100910.792000", "100910.795000", "100910.798000", "100910.819000", "100910.822000", "100910.825000", "100910.828000", "100910.832000", "100910.835000", "100910.838000", "100910.841000", "100910.844000", "100910.847000", "100910.850000", "100910.852000", "100910.855000", "100910.858000", "100910.861000", "100910.864000", "100910.867000", "100910.870000", "100945.613000", "100945.616000", "100945.619000", "100945.622000", "100945.624000", "100945.627000", "100945.630000", "100945.633000", "100945.636000", "100945.639000", "100945.642000", "100945.645000", "100945.648000", "100945.650000", "100945.653000", "100945.656000", "100945.659000", "100945.662000", "100945.665000", "100945.668000", "100945.671000", "100945.675000", "100945.678000"],
