{
  "AcquisitionMatrixPE": 104,
  "AcquisitionNumber": 1,
  "AcquisitionTime": "13:29:11.765000",
  "BandwidthPerPixelPhaseEncode": 17.17,
  "BaseResolution": 104,
  "BodyPartExamined": "BRAIN",
  "CoilString": "HC1-7;NC1_2",
  "ConsistencyInfo": "N4_VE11C_LATEST_20160120",
  "ConversionSoftware": "dcm2niix",
  "ConversionSoftwareVersion": "v1.0.20190902",
  "DerivedVendorReportedEchoSpacing": 0.000560011,
  "DeviceSerialNumber": "167006",
  "DwellTime": 2.1e-06,
  "EchoTime": 0.037,
  "EchoTrainLength": 104,
  "EffectiveEchoSpacing": 0.000560011,
  "FlipAngle": 52,
  "ImageComments": "Unaliased_MB4_PE3_LB",
  "ImageOrientationPatientDICOM": [0.998777, -0.0039958, -0.0492846, -0.00383502, 0.987467, -0.157778],
  "ImageType": [
    "ORIGINAL",
    "PRIMARY",
    "M",
    "MB",
    "ND",
    "MOSAIC"
],
  "ImagingFrequency": 123.259,
  "InPlanePhaseEncodingDirectionDICOM": "COL",
  "InstitutionAddress": "Chemin_Queen-Mary_4565_Montreal_District_CA_H3W_1W5",
  "InstitutionName": "IUGM",
  "InstitutionalDepartmentName": "Department",
  "MRAcquisitionType": "2D",
  "MagneticFieldStrength": 3,
  "Manufacturer": "Siemens",
  "ManufacturersModelName": "Prisma_fit",
  "Modality": "MR",
  "MultibandAccelerationFactor": 4,
  "PartialFourier": 1,
  "PatientPosition": "HFS",
  "PercentPhaseFOV": 100,
  "PhaseEncodingDirection": "j",
  "PhaseEncodingSteps": 104,
  "PhaseResolution": 1,
  "PixelBandwidth": 2290,
  "ProcedureStepDescription": "games_shinobi",
  "ProtocolName": "func_task-shinobi_run-1",
  "PulseSequenceDetails": "%CustomerSeq%_cmrr_mbep2d_bold",
  "ReceiveCoilActiveElements": "HC1-7;NC1,2",
  "ReceiveCoilName": "HeadNeck_64",
  "ReconMatrixPE": 104,
  "RepetitionTime": 1.49,
  "SAR": 0.0274378,
  "ScanOptions": "FS",
  "ScanningSequence": "EP",
  "SequenceName": "epfid2d1_104",
  "SequenceVariant": "SK_SS",
  "SeriesDescription": "func_task-shinobi_run-1",
  "SeriesNumber": 9,
  "ShimSetting": [601, -7265, -8797, 626, -67, -304, 25, 30],
  "SliceThickness": 2,
  "SliceTiming": [0, 0.785, 0.0975, 0.8825, 0.195, 0.98, 0.295, 1.0775, 0.3925, 1.175, 0.49, 1.275, 0.5875, 1.3725, 0.685, 0, 0.785, 0.0975, 0.8825, 0.195, 0.98, 0.295, 1.0775, 0.3925, 1.175, 0.49, 1.275, 0.5875, 1.3725, 0.685, 0, 0.785, 0.0975, 0.8825, 0.195, 0.98, 0.295, 1.0775, 0.3925, 1.175, 0.49, 1.275, 0.5875, 1.3725, 0.685, 0, 0.785, 0.0975, 0.8825, 0.195, 0.98, 0.295, 1.0775, 0.3925, 1.175, 0.49, 1.275, 0.5875, 1.3725, 0.685],
  "SoftwareVersions": "syngo_MR_E11",
  "SpacingBetweenSlices": 2,
  "StationName": "MRC35049",
  "TaskName": "shinobi",
  "TotalReadoutTime": 0.0576811,
  "TxRefAmp": 212.067,
  "WipMemBlock": "e7cf0356-51b4-49ed-b696-ee12a38f1d9a||Sequence: R016 ve11c/master r/e634e98; Dec 19 2017 11:00:25 by eja",
  "dcmmeta_affine": [
    [-1.9975535869598389, -0.007670038845390081, -0.09859480708837509, 105.76465606689453],
    [0.007991603575646877, 1.9749342203140259, -0.3155488669872284, -78.0326919555664],
    [-0.09856925904750824, 0.3155568540096283, 1.9724878072738647, -36.18709945678711],
    [0.0, 0.0, 0.0, 1.0]
],
  "dcmmeta_reorient_transform": [
    [0.0, -1.0, 0.0, 103.0],
    [1.0, 0.0, 0.0, 0.0],
    [0.0, 0.0, 1.0, 0.0],
    [0.0, 0.0, 0.0, 1.0]
],
  "dcmmeta_shape": [104, 104, 60, 408],
  "dcmmeta_slice_dim": 2,
  "dcmmeta_version": 0.6,
  "global": {
    "const": {
      "AcquisitionMatrix": [104, 0, 0, 104],
      "AngioFlag": "N",
      "BitsAllocated": 16,
      "BitsStored": 16,
      "BodyPartExamined": "BRAIN",
      "Columns": 832,
      "EchoNumbers": 1,
      "EchoTime": 37.0,
      "EchoTrainLength": 104,
      "FlipAngle": 52.0,
      "HighBit": 15,
      "ImageOrientationPatient": [0.99877678129482, -0.0039958017582, -0.0492846295985, -0.0038350194246, 0.98746709415656, -0.1577784224285],
      "ImagePositionPatient": [-829.29224706509, -841.35262653646, 147.05715806269],
      "ImageType": [
        "ORIGINAL",
        "PRIMARY",
        "M",
        "MB",
        "ND",
        "MOSAIC"
],
      "ImagedNucleus": "1H",
      "ImagingFrequency": 123.258944,
      "InPlanePhaseEncodingDirection": "COL",
      "MRAcquisitionType": "2D",
      "MagneticFieldStrength": 3.0,
      "Manufacturer": "SIEMENS",
      "ManufacturerModelName": "Prisma_fit",
      "Modality": "MR",
      "NumberOfAverages": 1.0,
      "NumberOfPhaseEncodingSteps": 104,
      "PercentPhaseFieldOfView": 100.0,
      "PercentSampling": 100.0,
      "PerformedProcedureStepStartTime": "125905.139000",
      "PhotometricInterpretation": "MONOCHROME2",
      "PixelBandwidth": 2290.0,
      "PixelRepresentation": 0,
      "PixelSpacing": [2.0, 2.0],
      "ProtocolName": "func_task-shinobi_run-1",
      "RepetitionTime": 1490.0,
      "Rows": 832,
      "SAR": 0.02743776974358,
      "SamplesPerPixel": 1,
      "ScanOptions": "FS",
      "ScanningSequence": "EP",
      "SequenceName": "epfid2d1_104",
      "SequenceVariant": [
        "SK",
        "SS"
],
      "SeriesDescription": "func_task-shinobi_run-1",
      "SeriesNumber": 9,
      "SeriesTime": "133033.350000",
      "SliceLocation": -28.591663358521,
      "SliceThickness": 2.0,
      "SmallestImagePixelValue": 0,
      "SoftwareVersions": "syngo MR E11",
      "SpacingBetweenSlices": 2.0000000241856,
      "SpecificCharacterSet": "ISO_IR 100",
      "StudyID": "1",
      "StudyTime": "125905.042000",
      "TransmitCoilName": "Body",
      "VariableFlipAngleFlag": "N",
      "WindowCenterWidthExplanation": "Algo1",
      "dBdt": 0.0},
    "slices": {}
  },
  "time": {
    "samples": {
      "AcquisitionNumber": [1, 2, 3, 4, 5, 6, 7, 8, 9, 10, 11, 12, 13, 14, 15, 16, 17, 18, 19, 20, 21, 22, 23, 24, 25, 26, 27, 28, 29, 30, 31, 32, 33, 34, 35, 36, 37, 38, 39, 40, 41, 42, 43, 44, 45, 46, 47, 48, 49, 50, 51, 52, 53, 54, 55, 56, 57, 58, 59, 60, 61, 62, 63, 64, 65, 66, 67, 68, 69, 70, 71, 72, 73, 74, 75, 76, 77, 78, 79, 80, 81, 82, 83, 84, 85, 86, 87, 88, 89, 90, 91, 92, 93, 94, 95, 96, 97, 98, 99, 100, 101, 102, 103, 104, 105, 106, 107, 108, 109, 110, 111, 112, 113, 114, 115, 116, 117, 118, 119, 120, 121, 122, 123, 124, 125, 126, 127, 128, 129, 130, 131, 132, 133, 134, 135, 136, 137, 138, 139, 140, 141, 142, 143, 144, 145, 146, 147, 148, 149, 150, 151, 152, 153, 154, 155, 156, 157, 158, 159, 160, 161, 162, 163, 164, 165, 166, 167, 168, 169, 170, 171, 172, 173, 174, 175, 176, 177, 178, 179, 180, 181, 182, 183, 184, 185, 186, 187, 188, 189, 190, 191, 192, 193, 194, 195, 196, 197, 198, 199, 200, 201, 202, 203, 204, 205, 206, 207, 208, 209, 210, 211, 212, 213, 214, 215, 216, 217, 218, 219, 220, 221, 222, 223, 224, 225, 226, 227, 228, 229, 230, 231, 232, 233, 234, 235, 236, 237, 238, 239, 240, 241, 242, 243, 244, 245, 246, 247, 248, 249, 250, 251, 252, 253, 254, 255, 256, 257, 258, 259, 260, 261, 262, 263, 264, 265, 266, 267, 268, 269, 270, 271, 272, 273, 274, 275, 276, 277, 278, 279, 280, 281, 282, 283, 284, 285, 286, 287, 288, 289, 290, 291, 292, 293, 294, 295, 296, 297, 298, 299, 300, 301, 302, 303, 304, 305, 306, 307, 308, 309, 310, 311, 312, 313, 314, 315, 316, 317, 318, 319, 320, 321, 322, 323, 324, 325, 326, 327, 328, 329, 330, 331, 332, 333, 334, 335, 336, 337, 338, 339, 340, 341, 342, 343, 344, 345, 346, 347, 348, 349, 350, 351, 352, 353, 354, 355, 356, 357, 358, 359, 360, 361, 362, 363, 364, 365, 366, 367, 368, 369, 370, 371, 372, 373, 374, 375, 376, 377, 378, 379, 380, 381, 382, 383, 384, 385, 386, 387, 388, 389, 390, 391, 392, 393, 394, 395, 396, 397, 398, 399, 400, 401, 402, 403, 404, 405, 406, 407, 408],
      "AcquisitionTime": ["132911.765000", "132913.255000", "132914.745000", "132916.235000", "132917.725000", "132919.215000", "132920.705000", "132922.195000", "132923.685000", "132925.175000", "132926.665000", "132928.155000", "132929.645000", "132931.135000", "132932.625000", "132934.115000", "132935.605000", "132937.095000", "132938.585000", "132940.075000", "132941.565000", "132943.055000", "132944.545000", "132946.035000", "132947.525000", "132949.015000", "132950.505000", "132951.995000", "132953.485000", "132954.975000", "132956.465000", "132957.955000", "132959.445000", "133000.935000", "133002.425000", "133003.915000", "133005.405000", "133006.895000", "133008.385000", "133009.875000", "133011.365000", "133012.855000", "133014.345000", "133015.835000", "133017.325000", "133018.815000", "133020.305000", "133021.795000", "133023.285000", "133024.775000", "133026.265000", "133027.755000", "133029.245000", "133030.735000", "133032.225000", "133033.715000", "133035.205000", "133036.695000", "133038.185000", "133039.675000", "133041.165000", "133042.655000", "133044.145000", "133045.635000", "133047.125000", "133048.615000", "133050.105000", "133051.595000", "133053.085000", "133054.575000", "133056.065000", "133057.555000", "133059.045000", "133100.535000", "133102.025000", "133103.515000", "133105.005000", "133106.495000", "133107.985000", "133109.475000", "133110.965000", "133112.455000", "133113.945000", "133115.435000", "133116.925000", "133118.415000", "133119.905000", "133121.395000", "133122.885000", "133124.375000", "133125.865000", "133127.355000", "133128.845000", "133130.335000", "133131.825000", "133133.315000", "133134.805000", "133136.295000", "133137.785000", "133139.275000", "133140.765000", "133142.255000", "133143.745000", "133145.235000", "133146.725000", "133148.215000", "133149.705000", "133151.195000", "133152.685000", "133154.175000", "133155.665000", "133157.155000", "133158.645000", "133200.135000", "133201.625000", "133203.115000", "133204.605000", "133206.095000", "133207.585000", "133209.075000", "133210.565000", "133212.055000", "133213.545000", "133215.035000", "133216.525000", "133218.015000", "133219.505000", "133220.995000", "133222.485000", "133223.975000", "133225.465000", "133226.955000", "133228.445000", "133229.935000", "133231.425000", "133232.915000", "133234.405000", "133235.895000", "133237.385000", "133238.875000", "133240.365000", "133241.855000", "133243.345000", "133244.835000", "133246.325000", "133247.815000", "133249.305000", "133250.795000", "133252.285000", "133253.775000", "133255.265000", "133256.755000", "133258.245000", "133259.735000", "133301.225000", "133302.715000", "133304.205000", "133305.695000", "133307.185000", "133308.675000", "133310.165000", "133311.655000", "133313.145000", "133314.635000", "133316.125000", "133317.615000", "133319.105000", "133320.595000", "133322.085000", "133323.575000", "133325.065000", "133326.555000", "133328.045000", "133329.535000", "133331.025000", "133332.515000", "133334.005000", "133335.495000", "133336.985000", "133338.475000", "133339.965000", "133341.455000", "133342.945000", "133344.435000", "133345.925000", "133347.415000", "133348.905000", "133350.395000", "133351.885000", "133353.375000", "133354.865000", "133356.355000", "133357.845000", "133359.335000", "133400.825000", "133402.315000", "133403.805000", "133405.295000", "133406.785000", "133408.275000", "133409.765000", "133411.255000", "133412.745000", "133414.235000", "133415.725000", "133417.215000", "133418.705000", "133420.195000", "133421.685000", "133423.175000", "133424.665000", "133426.155000", "133427.645000", "133429.135000", "133430.625000", "133432.115000", "133433.605000", "133435.095000", "133436.585000", "133438.075000", "133439.565000", "133441.055000", "133442.545000", "133444.035000", "133445.525000", "133447.015000", "133448.505000", "133449.995000", "133451.485000", "133452.975000", "133454.465000", "133455.955000", "133457.445000", "133458.935000", "133500.425000", "133501.915000", "133503.405000", "133504.895000", "133506.385000", "133507.875000", "133509.365000", "133510.855000", "133512.345000", "133513.835000", "133515.325000", "133516.815000", "133518.305000", "133519.795000", "133521.285000", "133522.775000", "133524.265000", "133525.755000", "133527.245000", "133528.735000", "133530.225000", "133531.715000", "133533.205000", "133534.695000", "133536.185000", "133537.675000", "133539.165000", "133540.655000", "133542.145000", "133543.635000", "133545.125000", "133546.615000", "133548.105000", "133549.595000", "133551.085000", "133552.575000", "133554.065000", "133555.555000", "133557.045000", "133558.535000", "133600.025000", "133601.515000", "133603.005000", "133604.495000", "133605.985000", "133607.475000", "133608.965000", "133610.455000", "133611.945000", "133613.435000", "133614.925000", "133616.415000", "133617.905000", "133619.395000", "133620.885000", "133622.375000", "133623.865000", "133625.355000", "133626.845000", "133628.335000", "133629.825000", "133631.315000", "133632.805000", "133634.295000", "133635.785000", "133637.275000", "133638.765000", "133640.255000", "133641.745000", "133643.235000", "133644.725000", "133646.215000", "133647.705000", "133649.195000", "133650.685000", "133652.175000", "133653.665000", "133655.155000", "133656.645000", "133658.135000", "133659.625000", "133701.115000", "133702.605000", "133704.095000", "133705.585000", "133707.075000", "133708.565000", "133710.055000", "133711.545000", "133713.035000", "133714.525000", "133716.015000", "133717.505000", "133718.995000", "133720.485000", "133721.975000", "133723.465000", "133724.955000", "133726.445000", "133727.935000", "133729.425000", "133730.915000", "133732.405000", "133733.895000", "133735.385000", "133736.875000", "133738.365000", "133739.855000", "133741.345000", "133742.835000", "133744.325000", "133745.815000", "133747.305000", "133748.795000", "133750.285000", "133751.775000", "133753.265000", "133754.755000", "133756.245000", "133757.735000", "133759.225000", "133800.715000", "133802.205000", "133803.695000", "133805.185000", "133806.675000", "133808.165000", "133809.655000", "133811.145000", "133812.635000", "133814.125000", "133815.615000", "133817.105000", "133818.595000", "133820.085000", "133821.575000", "133823.065000", "133824.555000", "133826.045000", "133827.535000", "133829.025000", "133830.515000", "133832.005000", "133833.495000", "133834.985000", "133836.475000", "133837.965000", "133839.455000", "133840.945000", "133842.435000", "133843.925000", "133845.415000", "133846.905000", "133848.395000", "133849.885000", "133851.375000", "133852.865000", "133854.355000", "133855.845000", "133857.335000", "133858.825000", "133900.315000", "133901.805000", "133903.295000", "133904.785000", "133906.275000", "133907.765000", "133909.255000", "133910.745000", "133912.235000", "133913.725000", "133915.215000", "133916.705000", "133918.195000"],
      "ContentTime": ["133033.352000", "133033.356000", "133033.359000", "133033.362000", "133033.364000", "133033.367000", "133033.370000", "133033.373000", "133033.384000", "133033.387000", "133033.390000", "133033.393000", "133033.396000", "133033.399000", "133033.401000", "133033.404000", "133033.407000", "133033.410000", "133033.413000", "133033.416000", "133033.418000", "133033.421000", "133033.424000", "133033.427000", "133033.430000", "133033.433000", "133033.442000", "133033.445000", "133033.448000", "133053.326000", "133053.329000", "133053.332000", "133053.335000", "133053.337000", "133053.340000", "133053.343000", "133053.346000", "133053.349000", "133053.359000", "133053.362000", "133053.364000", "133053.367000", "133053.370000", "133053.373000", "133053.376000", "133053.379000", "133053.382000", "133053.384000", "133053.388000", "133113.326000", "133113.329000", "133113.332000", "133113.335000", "133113.338000", "133113.341000", "133113.343000", "133113.346000", "133113.349000", "133113.352000", "133113.355000", "133113.357000", "133113.360000", "133113.363000", "133113.366000", "133113.369000", "133113.372000", "133113.375000", "133113.377000", "133113.380000", "133133.327000", "133133.330000", "133133.333000", "133133.336000", "133133.338000", "133133.341000", "133133.344000", "133133.347000", "133133.350000", "133133.353000", "133133.355000", "133133.358000", "133133.361000", "133133.364000", "133133.367000", "133133.371000", "133133.374000", "133133.377000", "133133.380000", "133133.384000", "133213.326000", "133213.329000", "133213.332000", "133213.335000", "133213.338000", "133213.341000", "133213.343000", "133213.346000", "133213.349000", "133213.352000", "133213.355000", "133213.358000", "133213.360000", "133213.363000", "133213.366000", "133213.369000", "133213.372000", "133213.375000", "133213.378000", "133213.380000", "133213.383000", "133213.386000", "133213.389000", "133213.392000", "133213.394000", "133213.397000", "133213.400000", "133213.403000", "133213.406000", "133213.409000", "133213.412000", "133213.414000", "133253.326000", "133253.329000", "133253.332000", "133253.335000", "133253.337000", "133253.340000", "133253.343000", "133253.346000", "133253.362000", "133253.365000", "133253.368000", "133253.371000", "133253.373000", "133253.376000", "133253.379000", "133253.382000", "133253.385000", "133253.388000", "133253.390000", "133253.393000", "133253.396000", "133253.399000", "133253.402000", "133253.405000", "133253.408000", "133253.410000", "133253.413000", "133333.326000", "133333.329000", "133333.332000", "133333.335000", "133333.346000", "133333.349000", "133333.351000", "133333.354000", "133333.357000", "133333.360000", "133333.363000", "133333.366000", "133333.369000", "133333.371000", "133333.374000", "133333.377000", "133333.380000", "133333.384000", "133333.387000", "133333.390000", "133333.393000", "133333.396000", "133333.399000", "133333.402000", "133333.404000", "133333.407000", "133413.327000", "133413.330000", "133413.333000", "133413.336000", "133413.339000", "133413.341000", "133413.344000", "133413.347000", "133413.350000", "133413.353000", "133413.356000", "133413.358000", "133413.361000", "133413.364000", "133413.367000", "133413.370000", "133413.373000", "133413.376000", "133413.379000", "133413.381000", "133413.384000", "133413.387000", "133413.390000", "133413.393000", "133413.396000", "133413.399000", "133413.402000", "133453.326000", "133453.329000", "133453.332000", "133453.335000", "133453.338000", "133453.340000", "133453.343000", "133453.346000", "133453.349000", "133453.352000", "133453.355000", "133453.358000", "133453.360000", "133453.363000", "133453.366000", "133453.375000", "133453.378000", "133453.381000", "133453.384000", "133453.387000", "133453.390000", "133453.393000", "133453.395000", "133453.398000", "133453.401000", "133453.404000", "133453.407000", "133533.326000", "133533.329000", "133533.332000", "133533.335000", "133533.338000", "133533.340000", "133533.343000", "133533.346000", "133533.349000", "133533.352000", "133533.355000", "133533.358000", "133533.360000", "133533.363000", "133533.366000", "133533.369000", "133533.372000", "133533.375000", "133533.378000", "133533.381000", "133533.383000", "133533.386000", "133533.389000", "133533.392000", "133533.395000", "133533.398000", "133533.401000", "133613.327000", "133613.330000", "133613.333000", "133613.336000", "133613.339000", "133613.342000", "133613.344000", "133613.347000", "133613.350000", "133613.353000", "133613.356000", "133613.359000", "133613.362000", "133613.365000", "133613.367000", "133613.370000", "133613.373000", "133613.376000", "133613.379000", "133613.382000", "133613.385000", "133613.388000", "133613.391000", "133613.393000", "133613.396000", "133613.399000", "133613.402000", "133653.326000", "133653.329000", "133653.332000", "133653.335000", "133653.338000", "133653.340000", "133653.343000", "133653.346000", "133653.349000", "133653.352000", "133653.355000", "133653.358000", "133653.361000", "133653.363000", "133653.366000", "133653.369000", "133653.372000", "133653.375000", "133653.378000", "133653.380000", "133653.383000", "133653.386000", "133653.389000", "133653.392000", "133653.395000", "133653.398000", "133653.400000", "133733.326000", "133733.329000", "133733.332000", "133733.339000", "133733.356000", "133733.359000", "133733.362000", "133733.365000", "133733.367000", "133733.370000", "133733.373000", "133733.376000", "133733.379000", "133733.382000", "133733.384000", "133733.387000", "133733.390000", "133733.393000", "133733.396000", "133733.399000", "133733.401000", "133733.404000", "133733.407000", "133733.410000", "133733.413000", "133733.416000", "133733.419000", "133813.326000", "133813.329000", "133813.332000", "133813.335000", "133813.338000", "133813.341000", "133813.343000", "133813.346000", "133813.349000", "133813.352000", "133813.355000", "133813.358000", "133813.361000", "133813.363000", "133813.368000", "133813.370000", "133813.374000", "133813.377000", "133813.379000", "133813.382000", "133813.385000", "133813.388000", "133813.391000", "133813.394000", "133813.396000", "133813.399000", "133853.327000", "133853.330000", "133853.333000", "133853.336000", "133853.339000", "133853.341000", "133853.344000", "133853.347000", "133853.350000", "133853.353000", "133853.356000", "133853.359000", "133853.362000", "133853.364000", "133853.367000", "133853.370000", "133853.373000", "133853.376000", "133853.379000", "133853.382000", "133853.385000", "133853.387000", "133853.390000", "133853.393000", "133853.396000", "133853.399000", "133853.402000", "133920.878000", "133920.882000", "133920.896000", "133920.900000", "133920.903000", "133920.906000", "133920.909000", "133920.913000", "133920.916000", "133920.919000", "133920.922000", "133920.925000", "133920.928000", "133920.931000", "133920.934000", "133920.937000", "133920.940000", "133920.943000", "133920.946000"],
      "InstanceCreationTime": ["133033.352000", "133033.356000", "133033.359000", "133033.362000", "133033.364000", "133033.367000", "133033.370000", "133033.373000", "133033.384000", "133033.387000", "133033.390000", "133033.393000", "133033.396000", "133033.399000", "133033.401000", "133033.404000", "133033.407000", "133033.410000", "133033.413000", "133033.416000", "133033.418000", "133033.421000", "133033.424000", "133033.427000", "133033.430000", "133033.433000", "133033.442000", "133033.445000", "133033.448000", "133053.326000", "133053.329000", "133053.332000", "133053.335000", "133053.337000", "133053.340000", "133053.343000", "133053.346000", "133053.349000", "133053.359000", "133053.362000", "133053.364000", "133053.367000", "133053.370000", "133053.373000", "133053.376000", "133053.379000", "133053.382000", "133053.384000", "133053.388000", "133113.326000", "133113.329000", "133113.332000", "133113.335000", "133113.338000", "133113.341000", "133113.343000", "133113.346000", "133113.349000", "133113.352000", "133113.355000", "133113.357000", "133113.360000", "133113.363000", "133113.366000", "133113.369000", "133113.372000", "133113.375000", "133113.377000", "133113.380000", "133133.327000", "133133.330000", "133133.333000", "133133.336000", "133133.338000", "133133.341000", "133133.344000", "133133.347000", "133133.350000", "133133.353000", "133133.355000", "133133.358000", "133133.361000", "133133.364000", "133133.367000", "133133.371000", "133133.374000", "133133.377000", "133133.380000", "133133.384000", "133213.326000", "133213.329000", "133213.332000", "133213.335000", "133213.338000", "133213.341000", "133213.343000", "133213.346000", "133213.349000", "133213.352000", "133213.355000", "133213.358000", "133213.360000", "133213.363000", "133213.366000", "133213.369000", "133213.372000", "133213.375000", "133213.378000", "133213.380000", "133213.383000", "133213.386000", "133213.389000", "133213.392000", "133213.394000", "133213.397000", "133213.400000", "133213.403000", "133213.406000", "133213.409000", "133213.412000", "133213.414000", "133253.326000", "133253.329000", "133253.332000", "133253.335000", "133253.337000", "133253.340000", "133253.343000", "133253.346000", "133253.362000", "133253.365000", "133253.368000", "133253.371000", "133253.373000", "133253.376000", "133253.379000", "133253.382000", "133253.385000", "133253.388000", "133253.390000", "133253.393000", "133253.396000", "133253.399000", "133253.402000", "133253.405000", "133253.408000", "133253.410000", "133253.413000", "133333.326000", "133333.329000", "133333.332000", "133333.335000", "133333.346000", "133333.349000", "133333.351000", "133333.354000", "133333.357000", "133333.360000", "133333.363000", "133333.366000", "133333.369000", "133333.371000", "133333.374000", "133333.377000", "133333.380000", "133333.384000", "133333.387000", "133333.390000", "133333.393000", "133333.396000", "133333.399000", "133333.402000", "133333.404000", "133333.407000", "133413.327000", "133413.330000", "133413.333000", "133413.336000", "133413.339000", "133413.341000", "133413.344000", "133413.347000", "133413.350000", "133413.353000", "133413.356000", "133413.358000", "133413.361000", "133413.364000", "133413.367000", "133413.370000", "133413.373000", "133413.376000", "133413.379000", "133413.381000", "133413.384000", "133413.387000", "133413.390000", "133413.393000", "133413.396000", "133413.399000", "133413.402000", "133453.326000", "133453.329000", "133453.332000", "133453.335000", "133453.338000", "133453.340000", "133453.343000", "133453.346000", "133453.349000", "133453.352000", "133453.355000", "133453.358000", "133453.360000", "133453.363000", "133453.366000", "133453.375000", "133453.378000", "133453.381000", "133453.384000", "133453.387000", "133453.390000", "133453.393000", "133453.395000", "133453.398000", "133453.401000", "133453.404000", "133453.407000", "133533.326000", "133533.329000", "133533.332000", "133533.335000", "133533.338000", "133533.340000", "133533.343000", "133533.346000", "133533.349000", "133533.352000", "133533.355000", "133533.358000", "133533.360000", "133533.363000", "133533.366000", "133533.369000", "133533.372000", "133533.375000", "133533.378000", "133533.381000", "133533.383000", "133533.386000", "133533.389000", "133533.392000", "133533.395000", "133533.398000", "133533.401000", "133613.327000", "133613.330000", "133613.333000", "133613.336000", "133613.339000", "133613.342000", "133613.344000", "133613.347000", "133613.350000", "133613.353000", "133613.356000", "133613.359000", "133613.362000", "133613.365000", "133613.367000", "133613.370000", "133613.373000", "133613.376000", "133613.379000", "133613.382000", "133613.385000", "133613.388000", "133613.391000", "133613.393000", "133613.396000", "133613.399000", "133613.402000", "133653.326000", "133653.329000", "133653.332000", "133653.335000", "133653.338000", "133653.340000", "133653.343000", "133653.346000", "133653.349000", "133653.352000", "133653.355000", "133653.358000", "133653.361000", "133653.363000", "133653.366000", "133653.369000", "133653.372000", "133653.375000", "133653.378000", "133653.380000", "133653.383000", "133653.386000", "133653.389000", "133653.392000", "133653.395000", "133653.398000", "133653.400000", "133733.326000", "133733.329000", "133733.332000", "133733.339000", "133733.356000", "133733.359000", "133733.362000", "133733.365000", "133733.367000", "133733.370000", "133733.373000", "133733.376000", "133733.379000", "133733.382000", "133733.384000", "133733.387000", "133733.390000", "133733.393000", "133733.396000", "133733.399000", "133733.401000", "133733.404000", "133733.407000", "133733.410000", "133733.413000", "133733.416000", "133733.419000", "133813.326000", "133813.329000", "133813.332000", "133813.335000", "133813.338000", "133813.341000", "133813.343000", "133813.346000", "133813.349000", "133813.352000", "133813.355000", "133813.358000", "133813.361000", "133813.363000", "133813.368000", "133813.370000", "133813.374000", "133813.377000", "133813.379000", "133813.382000", "133813.385000", "133813.388000", "133813.391000", "133813.394000", "133813.396000", "133813.399000", "133853.327000", "133853.330000", "133853.333000", "133853.336000", "133853.339000", "133853.341000", "133853.344000", "133853.347000", "133853.350000", "133853.353000", "133853.356000", "133853.359000", "133853.362000", "133853.364000", "133853.367000", "133853.370000", "133853.373000", "133853.376000", "133853.379000", "133853.382000", "133853.385000", "133853.387000", "133853.390000", "133853.393000", "133853.396000", "133853.399000", "133853.402000", "133920.878000", "133920.882000", "133920.896000", "133920.900000", "133920.903000", "133920.906000", "133920.909000", "133920.913000", "133920.916000", "133920.919000", "133920.922000", "133920.925000", "133920.928000", "133920.931000", "133920.934000", "133920.937000", "133920.940000", "133920.943000", "133920.946000"],
