{
  "AcquisitionMatrixPE": 104,
  "AcquisitionNumber": 1,
  "AcquisitionTime": "14:22:32.832500",
  "BandwidthPerPixelPhaseEncode": 17.17,
  "BaseResolution": 104,
  "BodyPartExamined": "BRAIN",
  "CoilString": "HC1-7;NC1_2",
  "ConsistencyInfo": "N4_VE11C_LATEST_20160120",
  "ConversionSoftware": "dcm2niix",
  "ConversionSoftwareVersion": "v1.0.20190902",
  "DerivedVendorReportedEchoSpacing": 0.000560011,
  "DeviceSerialNumber": "167006",
  "DwellTime": 2.1e-06,
  "EchoTime": 0.037,
  "EchoTrainLength": 104,
  "EffectiveEchoSpacing": 0.000560011,
  "FlipAngle": 52,
  "ImageComments": "Unaliased_MB4_PE3_LB",
  "ImageOrientationPatientDICOM": [0.998777, -0.0039958, -0.0492846, -0.00383502, 0.987467, -0.157778],
  "ImageType": [
    "ORIGINAL",
    "PRIMARY",
    "M",
    "MB",
    "ND",
    "MOSAIC"
],
  "ImagingFrequency": 123.259,
  "InPlanePhaseEncodingDirectionDICOM": "COL",
  "InstitutionAddress": "Chemin_Queen-Mary_4565_Montreal_District_CA_H3W_1W5",
  "InstitutionName": "IUGM",
  "InstitutionalDepartmentName": "Department",
  "MRAcquisitionType": "2D",
  "MagneticFieldStrength": 3,
  "Manufacturer": "Siemens",
  "ManufacturersModelName": "Prisma_fit",
  "Modality": "MR",
  "MultibandAccelerationFactor": 4,
  "PartialFourier": 1,
  "PatientPosition": "HFS",
  "PercentPhaseFOV": 100,
  "PhaseEncodingDirection": "j",
  "PhaseEncodingSteps": 104,
  "PhaseResolution": 1,
  "PixelBandwidth": 2290,
  "ProcedureStepDescription": "games_shinobi",
  "ProtocolName": "func_task-shinobi_run-5",
  "PulseSequenceDetails": "%CustomerSeq%_cmrr_mbep2d_bold",
  "ReceiveCoilActiveElements": "HC1-7;NC1,2",
  "ReceiveCoilName": "HeadNeck_64",
  "ReconMatrixPE": 104,
  "RepetitionTime": 1.49,
  "SAR": 0.0274378,
  "ScanOptions": "FS",
  "ScanningSequence": "EP",
  "SequenceName": "epfid2d1_104",
  "SequenceVariant": "SK_SS",
  "SeriesDescription": "func_task-shinobi_run-5",
  "SeriesNumber": 17,
  "ShimSetting": [601, -7265, -8797, 626, -67, -304, 25, 30],
  "SliceThickness": 2,
  "SliceTiming": [0, 0.7825, 0.0975, 0.8825, 0.195, 0.98, 0.2925, 1.0775, 0.3925, 1.175, 0.49, 1.2725, 0.5875, 1.3725, 0.685, 0, 0.7825, 0.0975, 0.8825, 0.195, 0.98, 0.2925, 1.0775, 0.3925, 1.175, 0.49, 1.2725, 0.5875, 1.3725, 0.685, 0, 0.7825, 0.0975, 0.8825, 0.195, 0.98, 0.2925, 1.0775, 0.3925, 1.175, 0.49, 1.2725, 0.5875, 1.3725, 0.685, 0, 0.7825, 0.0975, 0.8825, 0.195, 0.98, 0.2925, 1.0775, 0.3925, 1.175, 0.49, 1.2725, 0.5875, 1.3725, 0.685],
  "SoftwareVersions": "syngo_MR_E11",
  "SpacingBetweenSlices": 2,
  "StationName": "MRC35049",
  "TaskName": "shinobi",
  "TotalReadoutTime": 0.0576811,
  "TxRefAmp": 212.067,
  "WipMemBlock": "d4e54b14-90c5-414c-a854-5e603873c6ae||Sequence: R016 ve11c/master r/e634e98; Dec 19 2017 11:00:25 by eja",
  "dcmmeta_affine": [
    [-1.9975535869598389, -0.007670038845390081, -0.09859480708837509, 105.76465606689453],
    [0.007991603575646877, 1.9749342203140259, -0.3155488669872284, -78.0326919555664],
    [-0.09856925904750824, 0.3155568540096283, 1.9724878072738647, -36.18709945678711],
    [0.0, 0.0, 0.0, 1.0]
],
  "dcmmeta_reorient_transform": [
    [0.0, -1.0, 0.0, 103.0],
    [1.0, 0.0, 0.0, 0.0],
    [0.0, 0.0, 1.0, 0.0],
    [0.0, 0.0, 0.0, 1.0]
],
  "dcmmeta_shape": [104, 104, 60, 457],
  "dcmmeta_slice_dim": 2,
  "dcmmeta_version": 0.6,
  "global": {
    "const": {
      "AcquisitionMatrix": [104, 0, 0, 104],
      "AngioFlag": "N",
      "BitsAllocated": 16,
      "BitsStored": 16,
      "BodyPartExamined": "BRAIN",
      "Columns": 832,
      "EchoNumbers": 1,
      "EchoTime": 37.0,
      "EchoTrainLength": 104,
      "FlipAngle": 52.0,
      "HighBit": 15,
      "ImageOrientationPatient": [0.99877678129482, -0.0039958017582, -0.0492846295985, -0.0038350194246, 0.98746709415656, -0.1577784224285],
      "ImagePositionPatient": [-829.29224706509, -841.35262653646, 147.05715806269],
      "ImageType": [
        "ORIGINAL",
        "PRIMARY",
        "M",
        "MB",
        "ND",
        "MOSAIC"
],
      "ImagedNucleus": "1H",
      "ImagingFrequency": 123.25896,
      "InPlanePhaseEncodingDirection": "COL",
      "MRAcquisitionType": "2D",
      "MagneticFieldStrength": 3.0,
      "Manufacturer": "SIEMENS",
      "ManufacturerModelName": "Prisma_fit",
      "Modality": "MR",
      "NumberOfAverages": 1.0,
      "NumberOfPhaseEncodingSteps": 104,
      "PercentPhaseFieldOfView": 100.0,
      "PercentSampling": 100.0,
      "PerformedProcedureStepStartTime": "125905.139000",
      "PhotometricInterpretation": "MONOCHROME2",
      "PixelBandwidth": 2290.0,
      "PixelRepresentation": 0,
      "PixelSpacing": [2.0, 2.0],
      "ProtocolName": "func_task-shinobi_run-5",
      "RepetitionTime": 1490.0,
      "Rows": 832,
      "SAR": 0.02743776974358,
      "SamplesPerPixel": 1,
      "ScanOptions": "FS",
      "ScanningSequence": "EP",
      "SequenceName": "epfid2d1_104",
      "SequenceVariant": [
        "SK",
        "SS"
],
      "SeriesDescription": "func_task-shinobi_run-5",
      "SeriesNumber": 17,
      "SeriesTime": "142351.659000",
      "SliceLocation": -28.591663358521,
      "SliceThickness": 2.0,
      "SmallestImagePixelValue": 0,
      "SoftwareVersions": "syngo MR E11",
      "SpacingBetweenSlices": 2.0000000241856,
      "SpecificCharacterSet": "ISO_IR 100",
      "StudyID": "1",
      "StudyTime": "125905.042000",
      "TransmitCoilName": "Body",
      "VariableFlipAngleFlag": "N",
      "WindowCenterWidthExplanation": "Algo1",
      "dBdt": 0.0},
    "slices": {}
  },
  "time": {
    "samples": {
      "AcquisitionNumber": [1, 2, 3, 4, 5, 6, 7, 8, 9, 10, 11, 12, 13, 14, 15, 16, 17, 18, 19, 20, 21, 22, 23, 24, 25, 26, 27, 28, 29, 30, 31, 32, 33, 34, 35, 36, 37, 38, 39, 40, 41, 42, 43, 44, 45, 46, 47, 48, 49, 50, 51, 52, 53, 54, 55, 56, 57, 58, 59, 60, 61, 62, 63, 64, 65, 66, 67, 68, 69, 70, 71, 72, 73, 74, 75, 76, 77, 78, 79, 80, 81, 82, 83, 84, 85, 86, 87, 88, 89, 90, 91, 92, 93, 94, 95, 96, 97, 98, 99, 100, 101, 102, 103, 104, 105, 106, 107, 108, 109, 110, 111, 112, 113, 114, 115, 116, 117, 118, 119, 120, 121, 122, 123, 124, 125, 126, 127, 128, 129, 130, 131, 132, 133, 134, 135, 136, 137, 138, 139, 140, 141, 142, 143, 144, 145, 146, 147, 148, 149, 150, 151, 152, 153, 154, 155, 156, 157, 158, 159, 160, 161, 162, 163, 164, 165, 166, 167, 168, 169, 170, 171, 172, 173, 174, 175, 176, 177, 178, 179, 180, 181, 182, 183, 184, 185, 186, 187, 188, 189, 190, 191, 192, 193, 194, 195, 196, 197, 198, 199, 200, 201, 202, 203, 204, 205, 206, 207, 208, 209, 210, 211, 212, 213, 214, 215, 216, 217, 218, 219, 220, 221, 222, 223, 224, 225, 226, 227, 228, 229, 230, 231, 232, 233, 234, 235, 236, 237, 238, 239, 240, 241, 242, 243, 244, 245, 246, 247, 248, 249, 250, 251, 252, 253, 254, 255, 256, 257, 258, 259, 260, 261, 262, 263, 264, 265, 266, 267, 268, 269, 270, 271, 272, 273, 274, 275, 276, 277, 278, 279, 280, 281, 282, 283, 284, 285, 286, 287, 288, 289, 290, 291, 292, 293, 294, 295, 296, 297, 298, 299, 300, 301, 302, 303, 304, 305, 306, 307, 308, 309, 310, 311, 312, 313, 314, 315, 316, 317, 318, 319, 320, 321, 322, 323, 324, 325, 326, 327, 328, 329, 330, 331, 332, 333, 334, 335, 336, 337, 338, 339, 340, 341, 342, 343, 344, 345, 346, 347, 348, 349, 350, 351, 352, 353, 354, 355, 356, 357, 358, 359, 360, 361, 362, 363, 364, 365, 366, 367, 368, 369, 370, 371, 372, 373, 374, 375, 376, 377, 378, 379, 380, 381, 382, 383, 384, 385, 386, 387, 388, 389, 390, 391, 392, 393, 394, 395, 396, 397, 398, 399, 400, 401, 402, 403, 404, 405, 406, 407, 408, 409, 410, 411, 412, 413, 414, 415, 416, 417, 418, 419, 420, 421, 422, 423, 424, 425, 426, 427, 428, 429, 430, 431, 432, 433, 434, 435, 436, 437, 438, 439, 440, 441, 442, 443, 444, 445, 446, 447, 448, 449, 450, 451, 452, 453, 454, 455, 456, 457],
      "AcquisitionTime": ["142232.832500", "142234.322500", "142235.812500", "142237.302500", "142238.792500", "142240.282500", "142241.772500", "142243.262500", "142244.752500", "142246.242500", "142247.732500", "142249.222500", "142250.712500", "142252.202500", "142253.692500", "142255.182500", "142256.672500", "142258.162500", "142259.652500", "142301.142500", "142302.632500", "142304.122500", "142305.612500", "142307.102500", "142308.592500", "142310.082500", "142311.572500", "142313.062500", "142314.552500", "142316.042500", "142317.532500", "142319.022500", "142320.512500", "142322.002500", "142323.492500", "142324.982500", "142326.472500", "142327.962500", "142329.452500", "142330.942500", "142332.432500", "142333.922500", "142335.412500", "142336.902500", "142338.392500", "142339.882500", "142341.372500", "142342.862500", "142344.352500", "142345.842500", "142347.332500", "142348.822500", "142350.312500", "142351.802500", "142353.292500", "142354.782500", "142356.272500", "142357.762500", "142359.252500", "142400.742500", "142402.232500", "142403.722500", "142405.212500", "142406.702500", "142408.192500", "142409.682500", "142411.172500", "142412.662500", "142414.152500", "142415.642500", "142417.132500", "142418.622500", "142420.112500", "142421.602500", "142423.092500", "142424.582500", "142426.072500", "142427.562500", "142429.052500", "142430.542500", "142432.032500", "142433.522500", "142435.012500", "142436.502500", "142437.992500", "142439.482500", "142440.972500", "142442.462500", "142443.952500", "142445.442500", "142446.932500", "142448.422500", "142449.912500", "142451.402500", "142452.892500", "142454.382500", "142455.872500", "142457.362500", "142458.852500", "142500.342500", "142501.832500", "142503.322500", "142504.812500", "142506.302500", "142507.792500", "142509.282500", "142510.772500", "142512.262500", "142513.752500", "142515.242500", "142516.732500", "142518.222500", "142519.712500", "142521.202500", "142522.692500", "142524.182500", "142525.672500", "142527.162500", "142528.652500", "142530.142500", "142531.632500", "142533.122500", "142534.612500", "142536.102500", "142537.592500", "142539.082500", "142540.572500", "142542.062500", "142543.552500", "142545.042500", "142546.532500", "142548.022500", "142549.512500", "142551.002500", "142552.492500", "142553.982500", "142555.472500", "142556.962500", "142558.452500", "142559.942500", "142601.432500", "142602.922500", "142604.412500", "142605.902500", "142607.392500", "142608.882500", "142610.372500", "142611.862500", "142613.352500", "142614.842500", "142616.332500", "142617.822500", "142619.312500", "142620.802500", "142622.292500", "142623.782500", "142625.272500", "142626.762500", "142628.252500", "142629.742500", "142631.232500", "142632.722500", "142634.212500", "142635.702500", "142637.192500", "142638.682500", "142640.172500", "142641.662500", "142643.152500", "142644.642500", "142646.132500", "142647.622500", "142649.112500", "142650.602500", "142652.092500", "142653.582500", "142655.072500", "142656.562500", "142658.052500", "142659.542500", "142701.032500", "142702.522500", "142704.012500", "142705.502500", "142706.992500", "142708.482500", "142709.972500", "142711.462500", "142712.952500", "142714.442500", "142715.932500", "142717.422500", "142718.912500", "142720.402500", "142721.892500", "142723.382500", "142724.872500", "142726.362500", "142727.852500", "142729.342500", "142730.832500", "142732.322500", "142733.812500", "142735.302500", "142736.792500", "142738.282500", "142739.772500", "142741.262500", "142742.752500", "142744.242500", "142745.732500", "142747.222500", "142748.712500", "142750.202500", "142751.692500", "142753.182500", "142754.672500", "142756.162500", "142757.652500", "142759.142500", "142800.632500", "142802.122500", "142803.612500", "142805.102500", "142806.592500", "142808.082500", "142809.572500", "142811.062500", "142812.552500", "142814.042500", "142815.532500", "142817.022500", "142818.512500", "142820.002500", "142821.492500", "142822.982500", "142824.472500", "142825.962500", "142827.452500", "142828.942500", "142830.432500", "142831.922500", "142833.412500", "142834.902500", "142836.392500", "142837.882500", "142839.372500", "142840.862500", "142842.352500", "142843.842500", "142845.332500", "142846.822500", "142848.312500", "142849.802500", "142851.292500", "142852.782500", "142854.272500", "142855.762500", "142857.252500", "142858.742500", "142900.232500", "142901.722500", "142903.212500", "142904.702500", "142906.192500", "142907.682500", "142909.172500", "142910.662500", "142912.152500", "142913.642500", "142915.132500", "142916.622500", "142918.112500", "142919.602500", "142921.092500", "142922.582500", "142924.072500", "142925.562500", "142927.052500", "142928.542500", "142930.032500", "142931.522500", "142933.012500", "142934.502500", "142935.992500", "142937.482500", "142938.972500", "142940.462500", "142941.952500", "142943.442500", "142944.932500", "142946.422500", "142947.912500", "142949.402500", "142950.892500", "142952.382500", "142953.872500", "142955.362500", "142956.852500", "142958.342500", "142959.832500", "143001.322500", "143002.812500", "143004.302500", "143005.792500", "143007.282500", "143008.772500", "143010.262500", "143011.752500", "143013.242500", "143014.732500", "143016.222500", "143017.712500", "143019.202500", "143020.692500", "143022.182500", "143023.672500", "143025.162500", "143026.652500", "143028.142500", "143029.632500", "143031.122500", "143032.612500", "143034.102500", "143035.592500", "143037.082500", "143038.572500", "143040.062500", "143041.552500", "143043.042500", "143044.532500", "143046.022500", "143047.512500", "143049.002500", "143050.492500", "143051.982500", "143053.472500", "143054.962500", "143056.452500", "143057.942500", "143059.432500", "143100.922500", "143102.412500", "143103.902500", "143105.392500", "143106.882500", "143108.372500", "143109.862500", "143111.352500", "143112.842500", "143114.332500", "143115.822500", "143117.312500", "143118.802500", "143120.292500", "143121.782500", "143123.272500", "143124.762500", "143126.252500", "143127.742500", "143129.232500", "143130.722500", "143132.212500", "143133.702500", "143135.192500", "143136.682500", "143138.172500", "143139.662500", "143141.152500", "143142.642500", "143144.132500", "143145.622500", "143147.112500", "143148.602500", "143150.092500", "143151.582500", "143153.072500", "143154.562500", "143156.052500", "143157.542500", "143159.032500", "143200.522500", "143202.012500", "143203.502500", "143204.992500", "143206.482500", "143207.972500", "143209.462500", "143210.952500", "143212.442500", "143213.932500", "143215.422500", "143216.912500", "143218.402500", "143219.892500", "143221.382500", "143222.872500", "143224.362500", "143225.852500", "143227.342500", "143228.832500", "143230.322500", "143231.812500", "143233.302500", "143234.792500", "143236.282500", "143237.772500", "143239.262500", "143240.752500", "143242.242500", "143243.732500", "143245.222500", "143246.712500", "143248.202500", "143249.692500", "143251.182500", "143252.672500", "143254.162500", "143255.652500", "143257.142500", "143258.632500", "143300.122500", "143301.612500", "143303.102500", "143304.592500", "143306.082500", "143307.572500", "143309.062500", "143310.552500", "143312.042500", "143313.532500", "143315.022500", "143316.512500", "143318.002500", "143319.492500", "143320.982500", "143322.472500", "143323.962500", "143325.452500", "143326.942500", "143328.432500", "143329.922500", "143331.412500", "143332.902500", "143334.392500", "143335.882500", "143337.372500", "143338.862500", "143340.352500", "143341.842500", "143343.332500", "143344.822500", "143346.312500", "143347.802500", "143349.292500", "143350.782500", "143352.272500"],
      "ContentTime": ["142351.663000", "142351.676000", "142351.679000", "142351.682000", "142351.685000", "142351.687000", "142351.690000", "142351.693000", "142351.696000", "142351.699000", "142351.701000", "142351.708000", "142351.710000", "142351.713000", "142351.716000", "142351.719000", "142351.722000", "142351.724000", "142351.727000", "142351.730000", "142351.733000", "142351.736000", "142351.738000", "142351.741000", "142411.629000", "142411.632000", "142411.634000", "142411.637000", "142411.640000", "142411.643000", "142411.646000", "142411.649000", "142411.651000", "142411.654000", "142411.657000", "142411.664000", "142411.667000", "142411.670000", "142411.673000", "142411.676000", "142411.678000", "142411.681000", "142411.684000", "142411.687000", "142431.629000", "142431.632000", "142431.634000", "142431.637000", "142431.640000", "142431.643000", "142431.646000", "142431.648000", "142431.651000", "142431.654000", "142431.657000", "142431.660000", "142431.662000", "142431.665000", "142431.668000", "142431.671000", "142431.674000", "142431.676000", "142431.701000", "142431.704000", "142451.629000", "142451.632000", "142451.635000", "142451.637000", "142451.640000", "142451.643000", "142451.646000", "142451.649000", "142451.651000", "142451.654000", "142451.657000", "142451.660000", "142451.663000", "142451.666000", "142451.668000", "142451.671000", "142451.674000", "142451.677000", "142451.680000", "142451.683000", "142511.629000", "142511.632000", "142511.634000", "142511.637000", "142511.640000", "142511.643000", "142511.646000", "142511.649000", "142511.652000", "142511.654000", "142511.657000", "142511.660000", "142511.663000", "142511.666000", "142511.668000", "142511.671000", "142511.674000", "142511.677000", "142511.680000", "142511.683000", "142551.629000", "142551.632000", "142551.635000", "142551.638000", "142551.640000", "142551.643000", "142551.646000", "142551.649000", "142551.659000", "142551.662000", "142551.665000", "142551.668000", "142551.670000", "142551.673000", "142551.676000", "142551.679000", "142551.682000", "142551.685000", "142551.687000", "142551.690000", "142551.693000", "142551.696000", "142551.698000", "142551.701000", "142551.704000", "142551.707000", "142551.709000", "142551.712000", "142631.629000", "142631.632000", "142631.635000", "142631.643000", "142631.646000", "142631.648000", "142631.651000", "142631.654000", "142631.657000", "142631.660000", "142631.663000", "142631.666000", "142631.669000", "142631.671000", "142631.674000", "142631.677000", "142631.680000", "142631.683000", "142631.686000", "142631.689000", "142631.691000", "142631.694000", "142631.697000", "142631.700000", "142631.703000", "142631.706000", "142631.709000", "142711.629000", "142711.632000", "142711.635000", "142711.638000", "142711.640000", "142711.643000", "142711.646000", "142711.649000", "142711.652000", "142711.654000", "142711.657000", "142711.660000", "142711.663000", "142711.666000", "142711.682000", "142711.685000", "142711.688000", "142711.690000", "142711.693000", "142711.696000", "142711.699000", "142711.702000", "142711.706000", "142711.709000", "142711.713000", "142711.717000", "142711.720000", "142751.629000", "142751.632000", "142751.635000", "142751.637000", "142751.640000", "142751.643000", "142751.646000", "142751.649000", "142751.652000", "142751.654000", "142751.657000", "142751.660000", "142751.663000", "142751.666000", "142751.669000", "142751.671000", "142751.674000", "142751.677000", "142751.680000", "142751.683000", "142751.685000", "142751.688000", "142751.691000", "142751.694000", "142751.697000", "142751.700000", "142751.702000", "142831.629000", "142831.632000", "142831.635000", "142831.637000", "142831.645000", "142831.648000", "142831.651000", "142831.654000", "142831.657000", "142831.660000", "142831.663000", "142831.665000", "142831.668000", "142831.671000", "142831.674000", "142831.677000", "142831.680000", "142831.683000", "142831.686000", "142831.689000", "142831.691000", "142831.694000", "142831.697000", "142831.700000", "142831.703000", "142831.706000", "142831.708000", "142911.629000", "142911.632000", "142911.635000", "142911.638000", "142911.641000", "142911.643000", "142911.646000", "142911.649000", "142911.652000", "142911.655000", "142911.658000", "142911.661000", "142911.663000", "142911.666000", "142911.669000", "142911.672000", "142911.675000", "142911.678000", "142911.680000", "142911.683000", "142911.686000", "142911.689000", "142911.692000", "142911.695000", "142911.697000", "142911.700000", "142951.629000", "142951.632000", "142951.635000", "142951.638000", "142951.641000", "142951.644000", "142951.646000", "142951.649000", "142951.652000", "142951.655000", "142951.658000", "142951.661000", "142951.664000", "142951.667000", "142951.669000", "142951.672000", "142951.675000", "142951.678000", "142951.681000", "142951.684000", "142951.686000", "142951.689000", "142951.692000", "142951.695000", "142951.697000", "142951.700000", "142951.703000", "143031.629000", "143031.632000", "143031.635000", "143031.638000", "143031.641000", "143031.644000", "143031.647000", "143031.650000", "143031.653000", "143031.656000", "143031.659000", "143031.662000", "143031.665000", "143031.668000", "143031.671000", "143031.674000", "143031.677000", "143031.679000", "143031.682000", "143031.686000", "143031.688000", "143031.691000", "143031.694000", "143031.697000", "143031.700000", "143031.703000", "143031.706000", "143111.629000", "143111.632000", "143111.635000", "143111.638000", "143111.641000", "143111.644000", "143111.646000", "143111.649000", "143111.652000", "143111.655000", "143111.658000", "143111.661000", "143111.664000", "143111.666000", "143111.669000", "143111.672000", "143111.675000", "143111.678000", "143111.681000", "143111.684000", "143111.686000", "143111.689000", "143111.692000", "143111.695000", "143111.698000", "143111.700000", "143111.703000", "143151.629000", "143151.632000", "143151.635000", "143151.638000", "143151.641000", "143151.643000", "143151.646000", "143151.649000", "143151.652000", "143151.655000", "143151.658000", "143151.661000", "143151.664000", "143151.666000", "143151.682000", "143151.684000", "143151.687000", "143151.690000", "143151.693000", "143151.696000", "143151.699000", "143151.702000", "143151.704000", "143151.707000", "143151.710000", "143151.713000", "143151.716000", "143231.629000", "143231.632000", "143231.635000", "143231.638000", "143231.641000", "143231.643000", "143231.646000", "143231.649000", "143231.652000", "143231.655000", "143231.657000", "143231.660000", "143231.663000", "143231.666000", "143231.669000", "143231.672000", "143231.675000", "143231.677000", "143231.680000", "143231.683000", "143231.686000", "143231.689000", "143231.692000", "143231.694000", "143231.702000", "143231.704000", "143231.707000", "143311.629000", "143311.632000", "143311.635000", "143311.638000", "143311.641000", "143311.644000", "143311.647000", "143311.649000", "143311.652000", "143311.655000", "143311.658000", "143311.661000", "143311.664000", "143311.667000", "143311.670000", "143311.672000", "143311.675000", "143311.678000", "143311.681000", "143311.684000", "143311.687000", "143311.689000", "143311.692000", "143311.695000", "143311.698000", "143311.701000", "143311.704000", "143351.629000", "143351.632000", "143351.635000", "143351.638000", "143351.640000", "143351.643000", "143351.646000", "143351.649000", "143351.652000", "143351.655000", "143351.658000", "143351.661000", "143351.663000", "143351.666000", "143351.669000", "143351.672000", "143351.675000", "143351.678000", "143351.681000", "143351.683000", "143351.686000", "143351.689000", "143351.692000", "143351.695000", "143351.698000", "143351.702000", "143355.914000", "143355.917000", "143355.920000"],
