{
  "AcquisitionMatrixPE": 104,
  "AcquisitionNumber": 1,
  "AcquisitionTime": "11:06:10.672500",
  "BandwidthPerPixelPhaseEncode": 17.17,
  "BaseResolution": 104,
  "BodyPartExamined": "BRAIN",
  "CoilString": "HC1-7;NC1_2",
  "ConsistencyInfo": "N4_VE11C_LATEST_20160120",
  "ConversionSoftware": "dcm2niix",
  "ConversionSoftwareVersion": "v1.0.20190902",
  "DerivedVendorReportedEchoSpacing": 0.000560011,
  "DeviceSerialNumber": "167006",
  "DwellTime": 2.1e-06,
  "EchoTime": 0.037,
  "EchoTrainLength": 104,
  "EffectiveEchoSpacing": 0.000560011,
  "FlipAngle": 52,
  "ImageComments": "Unaliased_MB4_PE3_LB",
  "ImageOrientationPatientDICOM": [0.996048, 0.0644691, 0.0610864, -0.0448819, 0.958899, -0.280174],
  "ImageType": [
    "ORIGINAL",
    "PRIMARY",
    "M",
    "MB",
    "ND",
    "MOSAIC"
],
  "ImagingFrequency": 123.259,
  "InPlanePhaseEncodingDirectionDICOM": "COL",
  "InstitutionAddress": "Chemin_Queen-Mary_4565_Montreal_District_CA_H3W_1W5",
  "InstitutionName": "IUGM",
  "InstitutionalDepartmentName": "Department",
  "MRAcquisitionType": "2D",
  "MagneticFieldStrength": 3,
  "Manufacturer": "Siemens",
  "ManufacturersModelName": "Prisma_fit",
  "Modality": "MR",
  "MultibandAccelerationFactor": 4,
  "PartialFourier": 1,
  "PatientPosition": "HFS",
  "PercentPhaseFOV": 100,
  "PhaseEncodingDirection": "j",
  "PhaseEncodingSteps": 104,
  "PhaseResolution": 1,
  "PixelBandwidth": 2290,
  "ProcedureStepDescription": "games_shinobi",
  "ProtocolName": "func_task-shinobi_run-2",
  "PulseSequenceDetails": "%CustomerSeq%_cmrr_mbep2d_bold",
  "ReceiveCoilActiveElements": "HC1-7;NC1,2",
  "ReceiveCoilName": "HeadNeck_64",
  "ReconMatrixPE": 104,
  "RepetitionTime": 1.49,
  "SAR": 0.0408834,
  "ScanOptions": "FS",
  "ScanningSequence": "EP",
  "SequenceName": "epfid2d1_104",
  "SequenceVariant": "SK_SS",
  "SeriesDescription": "func_task-shinobi_run-2",
  "SeriesNumber": 11,
  "ShimSetting": [639, -7213, -8826, 665, 97, -20, 76, -7],
  "SliceThickness": 2,
  "SliceTiming": [0, 0.7825, 0.0975, 0.8825, 0.195, 0.98, 0.2925, 1.0775, 0.3925, 1.175, 0.49, 1.2725, 0.5875, 1.3725, 0.685, 0, 0.7825, 0.0975, 0.8825, 0.195, 0.98, 0.2925, 1.0775, 0.3925, 1.175, 0.49, 1.2725, 0.5875, 1.3725, 0.685, 0, 0.7825, 0.0975, 0.8825, 0.195, 0.98, 0.2925, 1.0775, 0.3925, 1.175, 0.49, 1.2725, 0.5875, 1.3725, 0.685, 0, 0.7825, 0.0975, 0.8825, 0.195, 0.98, 0.2925, 1.0775, 0.3925, 1.175, 0.49, 1.2725, 0.5875, 1.3725, 0.685],
  "SoftwareVersions": "syngo_MR_E11",
  "SpacingBetweenSlices": 2,
  "StationName": "MRC35049",
  "TaskName": "shinobi",
  "TotalReadoutTime": 0.0576811,
  "TxRefAmp": 249.674,
  "WipMemBlock": "12ec1efa-dd09-4860-ad94-13d71f8ba3fc||Sequence: R016 ve11c/master r/e634e98; Dec 19 2017 11:00:25 by eja",
  "dcmmeta_affine": [
    [-1.9920965433120728, -0.08976378291845322, 0.15327654778957367, 107.46800994873047],
    [-0.12893818318843842, 1.9177987575531006, -0.5526509284973145, -58.215370178222656],
    [0.1221727654337883, 0.560348629951477, 1.9160070419311523, -57.31233215332031],
    [0.0, 0.0, 0.0, 1.0]
],
  "dcmmeta_reorient_transform": [
    [0.0, -1.0, 0.0, 103.0],
    [1.0, 0.0, 0.0, 0.0],
    [0.0, 0.0, 1.0, 0.0],
    [0.0, 0.0, 0.0, 1.0]
],
  "dcmmeta_shape": [104, 104, 60, 440],
  "dcmmeta_slice_dim": 2,
  "dcmmeta_version": 0.6,
  "global": {
    "const": {
      "AcquisitionMatrix": [104, 0, 0, 104],
      "AngioFlag": "N",
      "BitsAllocated": 16,
      "BitsStored": 16,
      "BodyPartExamined": "BRAIN",
      "Columns": 832,
      "EchoNumbers": 1,
      "EchoTime": 37.0,
      "EchoTrainLength": 104,
      "FlipAngle": 52.0,
      "HighBit": 15,
      "ImageOrientationPatient": [0.99604828714417, 0.0644690891304, 0.06108638329335, -0.0448818929222, 0.95889935401486, -0.2801743110237],
      "ImagePositionPatient": [-790.67147319153, -884.33012175374, 159.89958887031],
      "ImageType": [
        "ORIGINAL",
        "PRIMARY",
        "M",
        "MB",
        "ND",
        "MOSAIC"
],
      "ImagedNucleus": "1H",
      "ImagingFrequency": 123.259039,
      "InPlanePhaseEncodingDirection": "COL",
      "MRAcquisitionType": "2D",
      "MagneticFieldStrength": 3.0,
      "Manufacturer": "SIEMENS",
      "ManufacturerModelName": "Prisma_fit",
      "Modality": "MR",
      "NumberOfAverages": 1.0,
      "NumberOfPhaseEncodingSteps": 104,
      "PercentPhaseFieldOfView": 100.0,
      "PercentSampling": 100.0,
      "PerformedProcedureStepStartTime": "105222.333000",
      "PhotometricInterpretation": "MONOCHROME2",
      "PixelBandwidth": 2290.0,
      "PixelRepresentation": 0,
      "PixelSpacing": [2.0, 2.0],
      "ProtocolName": "func_task-shinobi_run-2",
      "RepetitionTime": 1490.0,
      "Rows": 832,
      "SAR": 0.04088336459992,
      "SamplesPerPixel": 1,
      "ScanOptions": "FS",
      "ScanningSequence": "EP",
      "SequenceName": "epfid2d1_104",
      "SequenceVariant": [
        "SK",
        "SS"
],
      "SeriesDescription": "func_task-shinobi_run-2",
      "SeriesNumber": 11,
      "SeriesTime": "110739.597000",
      "SliceLocation": -30.582863529193,
      "SliceThickness": 2.0,
      "SmallestImagePixelValue": 0,
      "SoftwareVersions": "syngo MR E11",
      "SpacingBetweenSlices": 1.9999999490514,
      "SpecificCharacterSet": "ISO_IR 100",
      "StudyID": "1",
      "StudyTime": "105222.210000",
      "TransmitCoilName": "Body",
      "VariableFlipAngleFlag": "N",
      "WindowCenterWidthExplanation": "Algo1",
      "dBdt": 0.0},
    "slices": {}
  },
  "time": {
    "samples": {
      "AcquisitionNumber": [1, 2, 3, 4, 5, 6, 7, 8, 9, 10, 11, 12, 13, 14, 15, 16, 17, 18, 19, 20, 21, 22, 23, 24, 25, 26, 27, 28, 29, 30, 31, 32, 33, 34, 35, 36, 37, 38, 39, 40, 41, 42, 43, 44, 45, 46, 47, 48, 49, 50, 51, 52, 53, 54, 55, 56, 57, 58, 59, 60, 61, 62, 63, 64, 65, 66, 67, 68, 69, 70, 71, 72, 73, 74, 75, 76, 77, 78, 79, 80, 81, 82, 83, 84, 85, 86, 87, 88, 89, 90, 91, 92, 93, 94, 95, 96, 97, 98, 99, 100, 101, 102, 103, 104, 105, 106, 107, 108, 109, 110, 111, 112, 113, 114, 115, 116, 117, 118, 119, 120, 121, 122, 123, 124, 125, 126, 127, 128, 129, 130, 131, 132, 133, 134, 135, 136, 137, 138, 139, 140, 141, 142, 143, 144, 145, 146, 147, 148, 149, 150, 151, 152, 153, 154, 155, 156, 157, 158, 159, 160, 161, 162, 163, 164, 165, 166, 167, 168, 169, 170, 171, 172, 173, 174, 175, 176, 177, 178, 179, 180, 181, 182, 183, 184, 185, 186, 187, 188, 189, 190, 191, 192, 193, 194, 195, 196, 197, 198, 199, 200, 201, 202, 203, 204, 205, 206, 207, 208, 209, 210, 211, 212, 213, 214, 215, 216, 217, 218, 219, 220, 221, 222, 223, 224, 225, 226, 227, 228, 229, 230, 231, 232, 233, 234, 235, 236, 237, 238, 239, 240, 241, 242, 243, 244, 245, 246, 247, 248, 249, 250, 251, 252, 253, 254, 255, 256, 257, 258, 259, 260, 261, 262, 263, 264, 265, 266, 267, 268, 269, 270, 271, 272, 273, 274, 275, 276, 277, 278, 279, 280, 281, 282, 283, 284, 285, 286, 287, 288, 289, 290, 291, 292, 293, 294, 295, 296, 297, 298, 299, 300, 301, 302, 303, 304, 305, 306, 307, 308, 309, 310, 311, 312, 313, 314, 315, 316, 317, 318, 319, 320, 321, 322, 323, 324, 325, 326, 327, 328, 329, 330, 331, 332, 333, 334, 335, 336, 337, 338, 339, 340, 341, 342, 343, 344, 345, 346, 347, 348, 349, 350, 351, 352, 353, 354, 355, 356, 357, 358, 359, 360, 361, 362, 363, 364, 365, 366, 367, 368, 369, 370, 371, 372, 373, 374, 375, 376, 377, 378, 379, 380, 381, 382, 383, 384, 385, 386, 387, 388, 389, 390, 391, 392, 393, 394, 395, 396, 397, 398, 399, 400, 401, 402, 403, 404, 405, 406, 407, 408, 409, 410, 411, 412, 413, 414, 415, 416, 417, 418, 419, 420, 421, 422, 423, 424, 425, 426, 427, 428, 429, 430, 431, 432, 433, 434, 435, 436, 437, 438, 439, 440],
      "AcquisitionTime": ["110610.672500", "110612.162500", "110613.652500", "110615.142500", "110616.632500", "110618.122500", "110619.612500", "110621.102500", "110622.592500", "110624.082500", "110625.572500", "110627.062500", "110628.552500", "110630.042500", "110631.532500", "110633.022500", "110634.512500", "110636.002500", "110637.492500", "110638.982500", "110640.472500", "110641.962500", "110643.452500", "110644.942500", "110646.432500", "110647.922500", "110649.412500", "110650.902500", "110652.392500", "110653.882500", "110655.372500", "110656.862500", "110658.352500", "110659.842500", "110701.332500", "110702.822500", "110704.312500", "110705.802500", "110707.292500", "110708.782500", "110710.272500", "110711.762500", "110713.252500", "110714.742500", "110716.232500", "110717.722500", "110719.212500", "110720.702500", "110722.192500", "110723.682500", "110725.172500", "110726.662500", "110728.152500", "110729.642500", "110731.132500", "110732.622500", "110734.112500", "110735.602500", "110737.092500", "110738.582500", "110740.072500", "110741.562500", "110743.052500", "110744.542500", "110746.032500", "110747.522500", "110749.012500", "110750.502500", "110751.992500", "110753.482500", "110754.972500", "110756.462500", "110757.952500", "110759.442500", "110800.932500", "110802.422500", "110803.912500", "110805.402500", "110806.892500", "110808.382500", "110809.872500", "110811.362500", "110812.852500", "110814.342500", "110815.832500", "110817.322500", "110818.812500", "110820.302500", "110821.792500", "110823.282500", "110824.772500", "110826.262500", "110827.752500", "110829.242500", "110830.732500", "110832.222500", "110833.712500", "110835.202500", "110836.692500", "110838.182500", "110839.672500", "110841.162500", "110842.652500", "110844.142500", "110845.632500", "110847.122500", "110848.612500", "110850.102500", "110851.592500", "110853.082500", "110854.572500", "110856.062500", "110857.552500", "110859.042500", "110900.532500", "110902.022500", "110903.512500", "110905.002500", "110906.492500", "110907.982500", "110909.472500", "110910.962500", "110912.452500", "110913.942500", "110915.432500", "110916.922500", "110918.412500", "110919.902500", "110921.392500", "110922.882500", "110924.372500", "110925.862500", "110927.352500", "110928.842500", "110930.332500", "110931.822500", "110933.312500", "110934.802500", "110936.292500", "110937.782500", "110939.272500", "110940.762500", "110942.252500", "110943.742500", "110945.232500", "110946.722500", "110948.212500", "110949.702500", "110951.192500", "110952.682500", "110954.172500", "110955.662500", "110957.152500", "110958.642500", "111000.132500", "111001.622500", "111003.112500", "111004.602500", "111006.092500", "111007.582500", "111009.072500", "111010.562500", "111012.052500", "111013.542500", "111015.032500", "111016.522500", "111018.012500", "111019.502500", "111020.992500", "111022.482500", "111023.972500", "111025.462500", "111026.952500", "111028.442500", "111029.932500", "111031.422500", "111032.912500", "111034.402500", "111035.892500", "111037.382500", "111038.872500", "111040.362500", "111041.852500", "111043.342500", "111044.832500", "111046.322500", "111047.812500", "111049.302500", "111050.792500", "111052.282500", "111053.772500", "111055.262500", "111056.752500", "111058.242500", "111059.732500", "111101.222500", "111102.712500", "111104.202500", "111105.692500", "111107.182500", "111108.672500", "111110.162500", "111111.652500", "111113.142500", "111114.632500", "111116.122500", "111117.612500", "111119.102500", "111120.592500", "111122.082500", "111123.572500", "111125.062500", "111126.552500", "111128.042500", "111129.532500", "111131.022500", "111132.512500", "111134.002500", "111135.492500", "111136.982500", "111138.472500", "111139.962500", "111141.452500", "111142.942500", "111144.432500", "111145.922500", "111147.412500", "111148.902500", "111150.392500", "111151.882500", "111153.372500", "111154.862500", "111156.352500", "111157.842500", "111159.332500", "111200.822500", "111202.312500", "111203.802500", "111205.292500", "111206.782500", "111208.272500", "111209.762500", "111211.252500", "111212.742500", "111214.232500", "111215.722500", "111217.212500", "111218.702500", "111220.192500", "111221.682500", "111223.172500", "111224.662500", "111226.152500", "111227.642500", "111229.132500", "111230.622500", "111232.112500", "111233.602500", "111235.092500", "111236.582500", "111238.072500", "111239.562500", "111241.052500", "111242.542500", "111244.032500", "111245.522500", "111247.012500", "111248.502500", "111249.992500", "111251.482500", "111252.972500", "111254.462500", "111255.952500", "111257.442500", "111258.932500", "111300.422500", "111301.912500", "111303.402500", "111304.892500", "111306.382500", "111307.872500", "111309.362500", "111310.852500", "111312.342500", "111313.832500", "111315.322500", "111316.812500", "111318.302500", "111319.792500", "111321.282500", "111322.772500", "111324.262500", "111325.752500", "111327.242500", "111328.732500", "111330.222500", "111331.712500", "111333.202500", "111334.692500", "111336.182500", "111337.672500", "111339.162500", "111340.652500", "111342.142500", "111343.632500", "111345.122500", "111346.612500", "111348.102500", "111349.592500", "111351.082500", "111352.572500", "111354.062500", "111355.552500", "111357.042500", "111358.532500", "111400.022500", "111401.512500", "111403.002500", "111404.492500", "111405.982500", "111407.472500", "111408.962500", "111410.452500", "111411.942500", "111413.432500", "111414.922500", "111416.412500", "111417.902500", "111419.392500", "111420.882500", "111422.372500", "111423.862500", "111425.352500", "111426.842500", "111428.332500", "111429.822500", "111431.312500", "111432.802500", "111434.292500", "111435.782500", "111437.272500", "111438.762500", "111440.252500", "111441.742500", "111443.232500", "111444.722500", "111446.212500", "111447.702500", "111449.192500", "111450.682500", "111452.172500", "111453.662500", "111455.152500", "111456.642500", "111458.132500", "111459.622500", "111501.112500", "111502.602500", "111504.092500", "111505.582500", "111507.072500", "111508.562500", "111510.052500", "111511.542500", "111513.032500", "111514.522500", "111516.012500", "111517.502500", "111518.992500", "111520.482500", "111521.972500", "111523.462500", "111524.952500", "111526.442500", "111527.932500", "111529.422500", "111530.912500", "111532.402500", "111533.892500", "111535.382500", "111536.872500", "111538.362500", "111539.852500", "111541.342500", "111542.832500", "111544.322500", "111545.812500", "111547.302500", "111548.792500", "111550.282500", "111551.772500", "111553.262500", "111554.752500", "111556.242500", "111557.732500", "111559.222500", "111600.712500", "111602.202500", "111603.692500", "111605.182500", "111606.672500", "111608.162500", "111609.652500", "111611.142500", "111612.632500", "111614.122500", "111615.612500", "111617.102500", "111618.592500", "111620.082500", "111621.572500", "111623.062500", "111624.552500", "111626.042500", "111627.532500", "111629.022500", "111630.512500", "111632.002500", "111633.492500", "111634.982500", "111636.472500", "111637.962500", "111639.452500", "111640.942500", "111642.432500", "111643.922500", "111645.412500", "111646.902500", "111648.392500", "111649.882500", "111651.372500", "111652.862500", "111654.352500", "111655.842500", "111657.332500", "111658.822500", "111700.312500", "111701.802500", "111703.292500", "111704.782500"],
      "ContentTime": ["110739.600000", "110739.603000", "110739.606000", "110739.609000", "110739.612000", "110739.615000", "110739.618000", "110739.621000", "110739.624000", "110739.627000", "110739.629000", "110739.632000", "110739.642000", "110739.645000", "110739.648000", "110739.651000", "110739.654000", "110739.664000", "110739.667000", "110739.670000", "110739.673000", "110739.676000", "110739.679000", "110739.681000", "110739.684000", "110739.687000", "110739.690000", "110739.693000", "110739.696000", "110739.699000", "110739.702000", "110739.705000", "110739.707000", "110739.710000", "110739.713000", "110759.434000", "110759.437000", "110759.440000", "110759.443000", "110759.446000", "110759.449000", "110759.452000", "110759.455000", "110759.457000", "110759.460000", "110759.463000", "110759.466000", "110759.469000", "110759.472000", "110759.475000", "110759.478000", "110759.481000", "110759.493000", "110759.496000", "110759.499000", "110819.434000", "110819.437000", "110819.440000", "110819.443000", "110819.445000", "110819.448000", "110819.451000", "110819.454000", "110819.457000", "110819.460000", "110819.463000", "110819.466000", "110819.469000", "110819.471000", "110819.474000", "110819.477000", "110819.480000", "110819.483000", "110819.486000", "110819.489000", "110839.434000", "110839.437000", "110839.440000", "110839.444000", "110839.447000", "110839.450000", "110839.453000", "110839.456000", "110839.459000", "110839.462000", "110839.465000", "110839.468000", "110839.471000", "110839.474000", "110839.477000", "110839.489000", "110839.492000", "110839.495000", "110839.498000", "110839.501000", "110919.433000", "110919.436000", "110919.439000", "110919.442000", "110919.444000", "110919.447000", "110919.450000", "110919.453000", "110919.456000", "110919.459000", "110919.462000", "110919.481000", "110919.484000", "110919.487000", "110919.490000", "110919.493000", "110919.496000", "110919.499000", "110919.502000", "110919.505000", "110919.508000", "110919.510000", "110919.513000", "110919.516000", "110919.519000", "110919.522000", "110919.525000", "110919.528000", "110919.531000", "110919.534000", "110919.536000", "110959.434000", "110959.437000", "110959.440000", "110959.443000", "110959.446000", "110959.449000", "110959.452000", "110959.455000", "110959.458000", "110959.460000", "110959.463000", "110959.466000", "110959.469000", "110959.472000", "110959.475000", "110959.478000", "110959.481000", "110959.484000", "110959.486000", "110959.489000", "110959.492000", "110959.495000", "110959.498000", "110959.501000", "110959.504000", "110959.507000", "111039.434000", "111039.437000", "111039.440000", "111039.443000", "111039.446000", "111039.449000", "111039.452000", "111039.454000", "111039.457000", "111039.460000", "111039.463000", "111039.466000", "111039.469000", "111039.472000", "111039.475000", "111039.478000", "111039.480000", "111039.483000", "111039.486000", "111039.489000", "111039.492000", "111039.495000", "111039.498000", "111039.501000", "111039.504000", "111039.506000", "111039.509000", "111119.434000", "111119.437000", "111119.440000", "111119.443000", "111119.446000", "111119.449000", "111119.451000", "111119.454000", "111119.457000", "111119.460000", "111119.463000", "111119.466000", "111119.469000", "111119.472000", "111119.475000", "111119.478000", "111119.481000", "111119.484000", "111119.486000", "111119.489000", "111119.492000", "111119.495000", "111119.498000", "111119.501000", "111119.504000", "111119.507000", "111119.510000", "111159.434000", "111159.437000", "111159.443000", "111159.446000", "111159.449000", "111159.452000", "111159.455000", "111159.457000", "111159.460000", "111159.463000", "111159.466000", "111159.469000", "111159.472000", "111159.475000", "111159.478000", "111159.481000", "111159.483000", "111159.486000", "111159.489000", "111159.492000", "111159.495000", "111159.498000", "111159.501000", "111159.504000", "111159.507000", "111159.509000", "111159.512000", "111239.434000", "111239.437000", "111239.440000", "111239.443000", "111239.450000", "111239.453000", "111239.456000", "111239.459000", "111239.462000", "111239.465000", "111239.468000", "111239.470000", "111239.473000", "111239.476000", "111239.479000", "111239.482000", "111239.485000", "111239.488000", "111239.491000", "111239.493000", "111239.496000", "111239.499000", "111239.502000", "111239.505000", "111239.508000", "111239.511000", "111239.514000", "111319.434000", "111319.437000", "111319.440000", "111319.443000", "111319.446000", "111319.449000", "111319.452000", "111319.455000", "111319.458000", "111319.461000", "111319.464000", "111319.467000", "111319.470000", "111319.472000", "111319.475000", "111319.478000", "111319.481000", "111319.484000", "111319.487000", "111319.490000", "111319.493000", "111319.496000", "111319.498000", "111319.501000", "111319.504000", "111319.507000", "111319.510000", "111359.434000", "111359.437000", "111359.440000", "111359.443000", "111359.446000", "111359.449000", "111359.452000", "111359.466000", "111359.469000", "111359.471000", "111359.474000", "111359.477000", "111359.480000", "111359.483000", "111359.486000", "111359.489000", "111359.492000", "111359.494000", "111359.497000", "111359.500000", "111359.503000", "111359.506000", "111359.509000", "111359.512000", "111359.515000", "111359.518000", "111359.520000", "111439.434000", "111439.437000", "111439.440000", "111439.443000", "111439.452000", "111439.455000", "111439.458000", "111439.461000", "111439.464000", "111439.467000", "111439.470000", "111439.473000", "111439.475000", "111439.478000", "111439.481000", "111439.484000", "111439.487000", "111439.490000", "111439.493000", "111439.496000", "111439.498000", "111439.501000", "111439.505000", "111439.509000", "111439.511000", "111439.514000", "111519.434000", "111519.437000", "111519.440000", "111519.443000", "111519.446000", "111519.449000", "111519.452000", "111519.455000", "111519.458000", "111519.460000", "111519.463000", "111519.466000", "111519.469000", "111519.472000", "111519.475000", "111519.478000", "111519.481000", "111519.484000", "111519.486000", "111519.489000", "111519.492000", "111519.495000", "111519.498000", "111519.501000", "111519.504000", "111519.507000", "111519.510000", "111559.434000", "111559.437000", "111559.440000", "111559.443000", "111559.446000", "111559.448000", "111559.451000", "111559.454000", "111559.457000", "111559.460000", "111559.463000", "111559.466000", "111559.469000", "111559.472000", "111559.475000", "111559.478000", "111559.480000", "111559.483000", "111559.486000", "111559.489000", "111559.492000", "111559.495000", "111559.498000", "111559.501000", "111559.504000", "111559.507000", "111559.510000", "111639.434000", "111639.437000", "111639.440000", "111639.443000", "111639.446000", "111639.449000", "111639.451000", "111639.454000", "111639.457000", "111639.460000", "111639.463000", "111639.466000", "111639.469000", "111639.472000", "111639.475000", "111639.478000", "111639.480000", "111639.483000", "111639.486000", "111639.489000", "111639.492000", "111639.495000", "111639.498000", "111639.501000", "111639.504000", "111639.506000", "111639.509000", "111707.468000", "111707.471000", "111707.474000", "111707.477000", "111707.480000", "111707.483000", "111707.486000", "111707.488000", "111707.491000", "111707.494000", "111707.497000", "111707.500000", "111707.503000", "111707.506000", "111707.509000", "111707.512000", "111707.515000", "111707.518000", "111707.520000"],
