{
  "AcquisitionMatrixPE": 104,
  "AcquisitionNumber": 1,
  "AcquisitionTime": "11:18:2.290000",
  "BandwidthPerPixelPhaseEncode": 17.17,
  "BaseResolution": 104,
  "BodyPartExamined": "BRAIN",
  "CoilString": "HC1-7;NC1_2",
  "ConsistencyInfo": "N4_VE11C_LATEST_20160120",
  "ConversionSoftware": "dcm2niix",
  "ConversionSoftwareVersion": "v1.0.20190902",
  "DerivedVendorReportedEchoSpacing": 0.000560011,
  "DeviceSerialNumber": "167006",
  "DwellTime": 2.1e-06,
  "EchoTime": 0.037,
  "EchoTrainLength": 104,
  "EffectiveEchoSpacing": 0.000560011,
  "FlipAngle": 52,
  "ImageComments": "Unaliased_MB4_PE3_LB",
  "ImageOrientationPatientDICOM": [0.996048, 0.0644691, 0.0610864, -0.0448819, 0.958899, -0.280174],
  "ImageType": [
    "ORIGINAL",
    "PRIMARY",
    "M",
    "MB",
    "ND",
    "MOSAIC"
],
  "ImagingFrequency": 123.259,
  "InPlanePhaseEncodingDirectionDICOM": "COL",
  "InstitutionAddress": "Chemin_Queen-Mary_4565_Montreal_District_CA_H3W_1W5",
  "InstitutionName": "IUGM",
  "InstitutionalDepartmentName": "Department",
  "MRAcquisitionType": "2D",
  "MagneticFieldStrength": 3,
  "Manufacturer": "Siemens",
  "ManufacturersModelName": "Prisma_fit",
  "Modality": "MR",
  "MultibandAccelerationFactor": 4,
  "PartialFourier": 1,
  "PatientPosition": "HFS",
  "PercentPhaseFOV": 100,
  "PhaseEncodingDirection": "j",
  "PhaseEncodingSteps": 104,
  "PhaseResolution": 1,
  "PixelBandwidth": 2290,
  "ProcedureStepDescription": "games_shinobi",
  "ProtocolName": "func_task-shinobi_run-3",
  "PulseSequenceDetails": "%CustomerSeq%_cmrr_mbep2d_bold",
  "ReceiveCoilActiveElements": "HC1-7;NC1,2",
  "ReceiveCoilName": "HeadNeck_64",
  "ReconMatrixPE": 104,
  "RepetitionTime": 1.49,
  "SAR": 0.0408834,
  "ScanOptions": "FS",
  "ScanningSequence": "EP",
  "SequenceName": "epfid2d1_104",
  "SequenceVariant": "SK_SS",
  "SeriesDescription": "func_task-shinobi_run-3",
  "SeriesNumber": 13,
  "ShimSetting": [639, -7213, -8826, 665, 97, -20, 76, -7],
  "SliceThickness": 2,
  "SliceTiming": [0, 0.7825, 0.0975, 0.8825, 0.195, 0.98, 0.2925, 1.0775, 0.3925, 1.175, 0.49, 1.2725, 0.5875, 1.3725, 0.685, 0, 0.7825, 0.0975, 0.8825, 0.195, 0.98, 0.2925, 1.0775, 0.3925, 1.175, 0.49, 1.2725, 0.5875, 1.3725, 0.685, 0, 0.7825, 0.0975, 0.8825, 0.195, 0.98, 0.2925, 1.0775, 0.3925, 1.175, 0.49, 1.2725, 0.5875, 1.3725, 0.685, 0, 0.7825, 0.0975, 0.8825, 0.195, 0.98, 0.2925, 1.0775, 0.3925, 1.175, 0.49, 1.2725, 0.5875, 1.3725, 0.685],
  "SoftwareVersions": "syngo_MR_E11",
  "SpacingBetweenSlices": 2,
  "StationName": "MRC35049",
  "TaskName": "shinobi",
  "TotalReadoutTime": 0.0576811,
  "TxRefAmp": 249.674,
  "WipMemBlock": "9148f0b1-ec3b-4027-9c6b-dd0dfc451073||Sequence: R016 ve11c/master r/e634e98; Dec 19 2017 11:00:25 by eja",
  "dcmmeta_affine": [
    [-1.9920965433120728, -0.08976378291845322, 0.15327654778957367, 107.46800994873047],
    [-0.12893818318843842, 1.9177987575531006, -0.5526509284973145, -58.215370178222656],
    [0.1221727654337883, 0.560348629951477, 1.9160070419311523, -57.31233215332031],
    [0.0, 0.0, 0.0, 1.0]
],
  "dcmmeta_reorient_transform": [
    [0.0, -1.0, 0.0, 103.0],
    [1.0, 0.0, 0.0, 0.0],
    [0.0, 0.0, 1.0, 0.0],
    [0.0, 0.0, 0.0, 1.0]
],
  "dcmmeta_shape": [104, 104, 60, 469],
  "dcmmeta_slice_dim": 2,
  "dcmmeta_version": 0.6,
  "global": {
    "const": {
      "AcquisitionMatrix": [104, 0, 0, 104],
      "AngioFlag": "N",
      "BitsAllocated": 16,
      "BitsStored": 16,
      "BodyPartExamined": "BRAIN",
      "Columns": 832,
      "EchoNumbers": 1,
      "EchoTime": 37.0,
      "EchoTrainLength": 104,
      "FlipAngle": 52.0,
      "HighBit": 15,
      "ImageOrientationPatient": [0.99604828714417, 0.0644690891304, 0.06108638329335, -0.0448818929222, 0.95889935401486, -0.2801743110237],
      "ImagePositionPatient": [-790.67147319153, -884.33012175374, 159.89958887031],
      "ImageType": [
        "ORIGINAL",
        "PRIMARY",
        "M",
        "MB",
        "ND",
        "MOSAIC"
],
      "ImagedNucleus": "1H",
      "ImagingFrequency": 123.259042,
      "InPlanePhaseEncodingDirection": "COL",
      "MRAcquisitionType": "2D",
      "MagneticFieldStrength": 3.0,
      "Manufacturer": "SIEMENS",
      "ManufacturerModelName": "Prisma_fit",
      "Modality": "MR",
      "NumberOfAverages": 1.0,
      "NumberOfPhaseEncodingSteps": 104,
      "PercentPhaseFieldOfView": 100.0,
      "PercentSampling": 100.0,
      "PerformedProcedureStepStartTime": "105222.333000",
      "PhotometricInterpretation": "MONOCHROME2",
      "PixelBandwidth": 2290.0,
      "PixelRepresentation": 0,
      "PixelSpacing": [2.0, 2.0],
      "ProtocolName": "func_task-shinobi_run-3",
      "RepetitionTime": 1490.0,
      "Rows": 832,
      "SAR": 0.04088336459992,
      "SamplesPerPixel": 1,
      "ScanOptions": "FS",
      "ScanningSequence": "EP",
      "SequenceName": "epfid2d1_104",
      "SequenceVariant": [
        "SK",
        "SS"
],
      "SeriesDescription": "func_task-shinobi_run-3",
      "SeriesNumber": 13,
      "SeriesTime": "111900.095000",
      "SliceLocation": -30.582863529193,
      "SliceThickness": 2.0,
      "SmallestImagePixelValue": 0,
      "SoftwareVersions": "syngo MR E11",
      "SpacingBetweenSlices": 1.9999999490514,
      "SpecificCharacterSet": "ISO_IR 100",
      "StudyID": "1",
      "StudyTime": "105222.210000",
      "TransmitCoilName": "Body",
      "VariableFlipAngleFlag": "N",
      "WindowCenterWidthExplanation": "Algo1",
      "dBdt": 0.0},
    "slices": {}
  },
  "time": {
    "samples": {
      "AcquisitionNumber": [1, 2, 3, 4, 5, 6, 7, 8, 9, 10, 11, 12, 13, 14, 15, 16, 17, 18, 19, 20, 21, 22, 23, 24, 25, 26, 27, 28, 29, 30, 31, 32, 33, 34, 35, 36, 37, 38, 39, 40, 41, 42, 43, 44, 45, 46, 47, 48, 49, 50, 51, 52, 53, 54, 55, 56, 57, 58, 59, 60, 61, 62, 63, 64, 65, 66, 67, 68, 69, 70, 71, 72, 73, 74, 75, 76, 77, 78, 79, 80, 81, 82, 83, 84, 85, 86, 87, 88, 89, 90, 91, 92, 93, 94, 95, 96, 97, 98, 99, 100, 101, 102, 103, 104, 105, 106, 107, 108, 109, 110, 111, 112, 113, 114, 115, 116, 117, 118, 119, 120, 121, 122, 123, 124, 125, 126, 127, 128, 129, 130, 131, 132, 133, 134, 135, 136, 137, 138, 139, 140, 141, 142, 143, 144, 145, 146, 147, 148, 149, 150, 151, 152, 153, 154, 155, 156, 157, 158, 159, 160, 161, 162, 163, 164, 165, 166, 167, 168, 169, 170, 171, 172, 173, 174, 175, 176, 177, 178, 179, 180, 181, 182, 183, 184, 185, 186, 187, 188, 189, 190, 191, 192, 193, 194, 195, 196, 197, 198, 199, 200, 201, 202, 203, 204, 205, 206, 207, 208, 209, 210, 211, 212, 213, 214, 215, 216, 217, 218, 219, 220, 221, 222, 223, 224, 225, 226, 227, 228, 229, 230, 231, 232, 233, 234, 235, 236, 237, 238, 239, 240, 241, 242, 243, 244, 245, 246, 247, 248, 249, 250, 251, 252, 253, 254, 255, 256, 257, 258, 259, 260, 261, 262, 263, 264, 265, 266, 267, 268, 269, 270, 271, 272, 273, 274, 275, 276, 277, 278, 279, 280, 281, 282, 283, 284, 285, 286, 287, 288, 289, 290, 291, 292, 293, 294, 295, 296, 297, 298, 299, 300, 301, 302, 303, 304, 305, 306, 307, 308, 309, 310, 311, 312, 313, 314, 315, 316, 317, 318, 319, 320, 321, 322, 323, 324, 325, 326, 327, 328, 329, 330, 331, 332, 333, 334, 335, 336, 337, 338, 339, 340, 341, 342, 343, 344, 345, 346, 347, 348, 349, 350, 351, 352, 353, 354, 355, 356, 357, 358, 359, 360, 361, 362, 363, 364, 365, 366, 367, 368, 369, 370, 371, 372, 373, 374, 375, 376, 377, 378, 379, 380, 381, 382, 383, 384, 385, 386, 387, 388, 389, 390, 391, 392, 393, 394, 395, 396, 397, 398, 399, 400, 401, 402, 403, 404, 405, 406, 407, 408, 409, 410, 411, 412, 413, 414, 415, 416, 417, 418, 419, 420, 421, 422, 423, 424, 425, 426, 427, 428, 429, 430, 431, 432, 433, 434, 435, 436, 437, 438, 439, 440, 441, 442, 443, 444, 445, 446, 447, 448, 449, 450, 451, 452, 453, 454, 455, 456, 457, 458, 459, 460, 461, 462, 463, 464, 465, 466, 467, 468, 469],
      "AcquisitionTime": ["111802.290000", "111803.780000", "111805.270000", "111806.760000", "111808.250000", "111809.740000", "111811.230000", "111812.720000", "111814.210000", "111815.700000", "111817.190000", "111818.680000", "111820.170000", "111821.660000", "111823.150000", "111824.640000", "111826.130000", "111827.620000", "111829.110000", "111830.600000", "111832.090000", "111833.580000", "111835.070000", "111836.560000", "111838.050000", "111839.540000", "111841.030000", "111842.520000", "111844.010000", "111845.500000", "111846.990000", "111848.480000", "111849.970000", "111851.460000", "111852.950000", "111854.440000", "111855.930000", "111857.420000", "111858.910000", "111900.400000", "111901.890000", "111903.380000", "111904.870000", "111906.360000", "111907.850000", "111909.340000", "111910.830000", "111912.320000", "111913.810000", "111915.300000", "111916.790000", "111918.280000", "111919.770000", "111921.260000", "111922.750000", "111924.240000", "111925.730000", "111927.220000", "111928.710000", "111930.200000", "111931.690000", "111933.180000", "111934.670000", "111936.160000", "111937.650000", "111939.140000", "111940.630000", "111942.120000", "111943.610000", "111945.100000", "111946.590000", "111948.080000", "111949.570000", "111951.060000", "111952.550000", "111954.040000", "111955.530000", "111957.020000", "111958.510000", "112000.000000", "112001.490000", "112002.980000", "112004.470000", "112005.960000", "112007.450000", "112008.940000", "112010.430000", "112011.920000", "112013.410000", "112014.900000", "112016.390000", "112017.880000", "112019.370000", "112020.860000", "112022.350000", "112023.840000", "112025.330000", "112026.820000", "112028.310000", "112029.800000", "112031.290000", "112032.780000", "112034.270000", "112035.760000", "112037.250000", "112038.740000", "112040.230000", "112041.720000", "112043.210000", "112044.700000", "112046.190000", "112047.680000", "112049.170000", "112050.660000", "112052.150000", "112053.640000", "112055.130000", "112056.620000", "112058.110000", "112059.600000", "112101.090000", "112102.580000", "112104.070000", "112105.560000", "112107.050000", "112108.540000", "112110.030000", "112111.520000", "112113.010000", "112114.500000", "112115.990000", "112117.480000", "112118.970000", "112120.460000", "112121.950000", "112123.440000", "112124.930000", "112126.420000", "112127.910000", "112129.400000", "112130.890000", "112132.380000", "112133.870000", "112135.360000", "112136.850000", "112138.340000", "112139.830000", "112141.320000", "112142.810000", "112144.300000", "112145.790000", "112147.280000", "112148.770000", "112150.260000", "112151.750000", "112153.240000", "112154.730000", "112156.220000", "112157.710000", "112159.200000", "112200.690000", "112202.180000", "112203.670000", "112205.160000", "112206.650000", "112208.140000", "112209.630000", "112211.120000", "112212.610000", "112214.100000", "112215.590000", "112217.080000", "112218.570000", "112220.060000", "112221.550000", "112223.040000", "112224.530000", "112226.020000", "112227.510000", "112229.000000", "112230.490000", "112231.980000", "112233.470000", "112234.960000", "112236.450000", "112237.940000", "112239.430000", "112240.920000", "112242.410000", "112243.900000", "112245.390000", "112246.880000", "112248.370000", "112249.860000", "112251.350000", "112252.840000", "112254.330000", "112255.820000", "112257.310000", "112258.800000", "112300.290000", "112301.780000", "112303.270000", "112304.760000", "112306.250000", "112307.740000", "112309.230000", "112310.720000", "112312.210000", "112313.700000", "112315.190000", "112316.680000", "112318.170000", "112319.660000", "112321.150000", "112322.640000", "112324.130000", "112325.620000", "112327.110000", "112328.600000", "112330.090000", "112331.580000", "112333.070000", "112334.560000", "112336.050000", "112337.540000", "112339.030000", "112340.520000", "112342.010000", "112343.500000", "112344.990000", "112346.480000", "112347.970000", "112349.460000", "112350.950000", "112352.440000", "112353.930000", "112355.420000", "112356.910000", "112358.400000", "112359.890000", "112401.380000", "112402.870000", "112404.360000", "112405.850000", "112407.340000", "112408.830000", "112410.320000", "112411.810000", "112413.300000", "112414.790000", "112416.280000", "112417.770000", "112419.260000", "112420.750000", "112422.240000", "112423.730000", "112425.220000", "112426.710000", "112428.200000", "112429.690000", "112431.180000", "112432.670000", "112434.160000", "112435.650000", "112437.140000", "112438.630000", "112440.120000", "112441.610000", "112443.100000", "112444.590000", "112446.080000", "112447.570000", "112449.060000", "112450.550000", "112452.040000", "112453.530000", "112455.020000", "112456.510000", "112458.000000", "112459.490000", "112500.980000", "112502.470000", "112503.960000", "112505.450000", "112506.940000", "112508.430000", "112509.920000", "112511.410000", "112512.900000", "112514.390000", "112515.880000", "112517.370000", "112518.860000", "112520.350000", "112521.840000", "112523.330000", "112524.820000", "112526.310000", "112527.800000", "112529.290000", "112530.780000", "112532.270000", "112533.760000", "112535.250000", "112536.740000", "112538.230000", "112539.720000", "112541.210000", "112542.700000", "112544.190000", "112545.680000", "112547.170000", "112548.660000", "112550.150000", "112551.640000", "112553.130000", "112554.620000", "112556.110000", "112557.600000", "112559.090000", "112600.580000", "112602.070000", "112603.560000", "112605.050000", "112606.540000", "112608.030000", "112609.520000", "112611.010000", "112612.500000", "112613.990000", "112615.480000", "112616.970000", "112618.460000", "112619.950000", "112621.440000", "112622.930000", "112624.420000", "112625.910000", "112627.400000", "112628.890000", "112630.380000", "112631.870000", "112633.360000", "112634.850000", "112636.340000", "112637.830000", "112639.320000", "112640.810000", "112642.300000", "112643.790000", "112645.280000", "112646.770000", "112648.260000", "112649.750000", "112651.240000", "112652.730000", "112654.220000", "112655.710000", "112657.200000", "112658.690000", "112700.180000", "112701.670000", "112703.160000", "112704.650000", "112706.140000", "112707.630000", "112709.120000", "112710.610000", "112712.100000", "112713.590000", "112715.080000", "112716.570000", "112718.060000", "112719.550000", "112721.040000", "112722.530000", "112724.020000", "112725.510000", "112727.000000", "112728.490000", "112729.980000", "112731.470000", "112732.960000", "112734.450000", "112735.940000", "112737.430000", "112738.920000", "112740.410000", "112741.900000", "112743.390000", "112744.880000", "112746.370000", "112747.860000", "112749.350000", "112750.840000", "112752.330000", "112753.820000", "112755.310000", "112756.800000", "112758.290000", "112759.780000", "112801.270000", "112802.760000", "112804.250000", "112805.740000", "112807.230000", "112808.720000", "112810.210000", "112811.700000", "112813.190000", "112814.680000", "112816.170000", "112817.660000", "112819.150000", "112820.640000", "112822.130000", "112823.620000", "112825.110000", "112826.600000", "112828.090000", "112829.580000", "112831.070000", "112832.560000", "112834.050000", "112835.540000", "112837.030000", "112838.520000", "112840.010000", "112841.500000", "112842.990000", "112844.480000", "112845.970000", "112847.460000", "112848.950000", "112850.440000", "112851.930000", "112853.420000", "112854.910000", "112856.400000", "112857.890000", "112859.380000", "112900.870000", "112902.360000", "112903.850000", "112905.340000", "112906.830000", "112908.320000", "112909.810000", "112911.300000", "112912.790000", "112914.280000", "112915.770000", "112917.260000", "112918.750000", "112920.240000", "112921.730000", "112923.220000", "112924.710000", "112926.200000", "112927.690000", "112929.180000", "112930.670000", "112932.160000", "112933.650000", "112935.140000", "112936.630000", "112938.120000", "112939.610000"],
      "ContentTime": ["111900.098000", "111900.101000", "111920.071000", "111920.074000", "111920.077000", "111920.080000", "111920.083000", "111920.085000", "111920.088000", "111920.091000", "111920.094000", "111920.097000", "111920.112000", "111920.115000", "111920.118000", "111920.120000", "111920.132000", "111920.135000", "111920.138000", "111920.147000", "111920.149000", "111920.152000", "111940.070000", "111940.073000", "111940.076000", "111940.079000", "111940.082000", "111940.085000", "111940.088000", "111940.092000", "111940.094000", "111940.097000", "111940.100000", "111940.103000", "111940.106000", "111940.109000", "111940.112000", "111940.114000", "111940.117000", "111940.120000", "111940.123000", "111940.126000", "112000.070000", "112000.073000", "112000.076000", "112000.079000", "112000.082000", "112000.084000", "112000.087000", "112000.090000", "112000.093000", "112000.096000", "112000.099000", "112000.102000", "112000.104000", "112000.107000", "112000.110000", "112000.113000", "112000.116000", "112000.119000", "112000.122000", "112000.125000", "112020.070000", "112020.073000", "112020.076000", "112020.079000", "112020.082000", "112020.085000", "112020.087000", "112020.090000", "112020.093000", "112020.096000", "112020.099000", "112020.102000", "112020.105000", "112020.107000", "112020.110000", "112020.113000", "112020.116000", "112020.119000", "112020.122000", "112020.125000", "112040.070000", "112040.073000", "112040.076000", "112040.079000", "112040.082000", "112040.084000", "112040.087000", "112040.090000", "112040.093000", "112040.096000", "112040.099000", "112040.102000", "112040.104000", "112040.107000", "112040.110000", "112040.113000", "112040.116000", "112040.119000", "112040.122000", "112040.125000", "112120.071000", "112120.074000", "112120.077000", "112120.080000", "112120.082000", "112120.085000", "112120.088000", "112120.091000", "112120.094000", "112120.097000", "112120.100000", "112120.103000", "112120.105000", "112120.108000", "112120.111000", "112120.114000", "112120.117000", "112120.120000", "112120.123000", "112120.126000", "112120.129000", "112120.131000", "112120.134000", "112120.137000", "112120.140000", "112120.143000", "112120.146000", "112120.149000", "112120.152000", "112120.155000", "112200.070000", "112200.073000", "112200.076000", "112200.079000", "112200.082000", "112200.084000", "112200.087000", "112200.090000", "112200.093000", "112200.096000", "112200.099000", "112200.102000", "112200.104000", "112200.107000", "112200.110000", "112200.113000", "112200.116000", "112200.119000", "112200.122000", "112200.125000", "112200.128000", "112200.131000", "112200.133000", "112200.136000", "112200.139000", "112200.142000", "112240.070000", "112240.073000", "112240.076000", "112240.079000", "112240.082000", "112240.085000", "112240.088000", "112240.090000", "112240.093000", "112240.096000", "112240.099000", "112240.102000", "112240.105000", "112240.108000", "112240.110000", "112240.113000", "112240.116000", "112240.119000", "112240.122000", "112240.125000", "112240.135000", "112240.138000", "112240.141000", "112240.144000", "112240.147000", "112240.150000", "112240.153000", "112320.071000", "112320.074000", "112320.077000", "112320.080000", "112320.083000", "112320.086000", "112320.088000", "112320.091000", "112320.094000", "112320.097000", "112320.100000", "112320.103000", "112320.106000", "112320.109000", "112320.112000", "112320.115000", "112320.117000", "112320.120000", "112320.123000", "112320.126000", "112320.129000", "112320.132000", "112320.135000", "112320.138000", "112320.140000", "112320.143000", "112320.146000", "112400.071000", "112400.074000", "112400.077000", "112400.080000", "112400.083000", "112400.086000", "112400.089000", "112400.092000", "112400.095000", "112400.097000", "112400.100000", "112400.103000", "112400.106000", "112400.109000", "112400.112000", "112400.128000", "112400.131000", "112400.134000", "112400.137000", "112400.140000", "112400.142000", "112400.145000", "112400.148000", "112400.151000", "112400.154000", "112400.157000", "112400.160000", "112440.070000", "112440.073000", "112440.076000", "112440.079000", "112440.082000", "112440.085000", "112440.088000", "112440.090000", "112440.093000", "112440.096000", "112440.099000", "112440.102000", "112440.105000", "112440.108000", "112440.110000", "112440.113000", "112440.116000", "112440.119000", "112440.122000", "112440.125000", "112440.128000", "112440.131000", "112440.134000", "112440.136000", "112440.139000", "112440.142000", "112440.149000", "112520.070000", "112520.073000", "112520.076000", "112520.079000", "112520.082000", "112520.085000", "112520.087000", "112520.090000", "112520.093000", "112520.096000", "112520.099000", "112520.102000", "112520.105000", "112520.108000", "112520.110000", "112520.113000", "112520.116000", "112520.119000", "112520.122000", "112520.125000", "112520.128000", "112520.131000", "112520.134000", "112520.136000", "112520.139000", "112520.142000", "112520.145000", "112600.071000", "112600.074000", "112600.077000", "112600.080000", "112600.083000", "112600.086000", "112600.089000", "112600.092000", "112600.094000", "112600.097000", "112600.100000", "112600.103000", "112600.106000", "112600.109000", "112600.112000", "112600.115000", "112600.118000", "112600.121000", "112600.124000", "112600.127000", "112600.129000", "112600.132000", "112600.135000", "112600.138000", "112600.141000", "112600.144000", "112640.070000", "112640.073000", "112640.076000", "112640.079000", "112640.082000", "112640.085000", "112640.088000", "112640.090000", "112640.093000", "112640.096000", "112640.099000", "112640.102000", "112640.105000", "112640.108000", "112640.110000", "112640.113000", "112640.116000", "112640.119000", "112640.122000", "112640.125000", "112640.128000", "112640.131000", "112640.134000", "112640.137000", "112640.140000", "112640.142000", "112640.145000", "112720.070000", "112720.073000", "112720.076000", "112720.079000", "112720.082000", "112720.084000", "112720.087000", "112720.090000", "112720.093000", "112720.096000", "112720.099000", "112720.102000", "112720.105000", "112720.107000", "112720.110000", "112720.113000", "112720.116000", "112720.119000", "112720.122000", "112720.125000", "112720.128000", "112720.131000", "112720.134000", "112720.137000", "112720.139000", "112720.142000", "112720.145000", "112800.071000", "112800.074000", "112800.077000", "112800.080000", "112800.083000", "112800.086000", "112800.089000", "112800.091000", "112800.094000", "112800.097000", "112800.100000", "112800.103000", "112800.106000", "112800.109000", "112800.112000", "112800.114000", "112800.117000", "112800.120000", "112800.123000", "112800.126000", "112800.129000", "112800.132000", "112800.135000", "112800.138000", "112800.141000", "112800.143000", "112800.146000", "112840.071000", "112840.074000", "112840.088000", "112840.091000", "112840.094000", "112840.097000", "112840.100000", "112840.103000", "112840.106000", "112840.109000", "112840.112000", "112840.114000", "112840.117000", "112840.120000", "112840.123000", "112840.126000", "112840.129000", "112840.132000", "112840.135000", "112840.138000", "112840.140000", "112840.143000", "112840.146000", "112840.149000", "112840.152000", "112840.155000", "112840.158000", "112920.070000", "112920.073000", "112920.076000", "112920.079000", "112920.082000", "112920.085000", "112920.088000", "112920.091000", "112920.093000", "112920.096000", "112920.099000", "112920.102000", "112920.105000", "112920.108000", "112920.111000", "112920.114000", "112920.116000", "112920.119000", "112920.122000", "112920.125000", "112920.128000", "112920.131000", "112920.134000", "112920.137000", "112920.140000", "112920.142000", "112920.145000", "112942.597000", "112942.600000", "112942.604000", "112942.606000", "112942.609000", "112942.612000", "112942.615000", "112942.618000", "112942.621000", "112942.624000", "112942.627000", "112942.630000", "112942.633000", "112942.636000", "112942.638000"],
