{
  "AcquisitionMatrixPE": 104,
  "AcquisitionNumber": 1,
  "AcquisitionTime": "11:30:24.717500",
  "BandwidthPerPixelPhaseEncode": 17.17,
  "BaseResolution": 104,
  "BodyPartExamined": "BRAIN",
  "CoilString": "HC1-7;NC1_2",
  "ConsistencyInfo": "N4_VE11C_LATEST_20160120",
  "ConversionSoftware": "dcm2niix",
  "ConversionSoftwareVersion": "v1.0.20190902",
  "DerivedVendorReportedEchoSpacing": 0.000560011,
  "DeviceSerialNumber": "167006",
  "DwellTime": 2.1e-06,
  "EchoTime": 0.037,
  "EchoTrainLength": 104,
  "EffectiveEchoSpacing": 0.000560011,
  "FlipAngle": 52,
  "ImageComments": "Unaliased_MB4_PE3_LB",
  "ImageOrientationPatientDICOM": [0.996048, 0.0644691, 0.0610864, -0.0448819, 0.958899, -0.280174],
  "ImageType": [
    "ORIGINAL",
    "PRIMARY",
    "M",
    "MB",
    "ND",
    "MOSAIC"
],
  "ImagingFrequency": 123.259,
  "InPlanePhaseEncodingDirectionDICOM": "COL",
  "InstitutionAddress": "Chemin_Queen-Mary_4565_Montreal_District_CA_H3W_1W5",
  "InstitutionName": "IUGM",
  "InstitutionalDepartmentName": "Department",
  "MRAcquisitionType": "2D",
  "MagneticFieldStrength": 3,
  "Manufacturer": "Siemens",
  "ManufacturersModelName": "Prisma_fit",
  "Modality": "MR",
  "MultibandAccelerationFactor": 4,
  "PartialFourier": 1,
  "PatientPosition": "HFS",
  "PercentPhaseFOV": 100,
  "PhaseEncodingDirection": "j",
  "PhaseEncodingSteps": 104,
  "PhaseResolution": 1,
  "PixelBandwidth": 2290,
  "ProcedureStepDescription": "games_shinobi",
  "ProtocolName": "func_task-shinobi_run-4",
  "PulseSequenceDetails": "%CustomerSeq%_cmrr_mbep2d_bold",
  "ReceiveCoilActiveElements": "HC1-7;NC1,2",
  "ReceiveCoilName": "HeadNeck_64",
  "ReconMatrixPE": 104,
  "RepetitionTime": 1.49,
  "SAR": 0.0408834,
  "ScanOptions": "FS",
  "ScanningSequence": "EP",
  "SequenceName": "epfid2d1_104",
  "SequenceVariant": "SK_SS",
  "SeriesDescription": "func_task-shinobi_run-4",
  "SeriesNumber": 15,
  "ShimSetting": [639, -7213, -8826, 665, 97, -20, 76, -7],
  "SliceThickness": 2,
  "SliceTiming": [0, 0.7825, 0.0975, 0.8825, 0.195, 0.98, 0.2925, 1.0775, 0.3925, 1.175, 0.49, 1.2725, 0.5875, 1.3725, 0.685, 0, 0.7825, 0.0975, 0.8825, 0.195, 0.98, 0.2925, 1.0775, 0.3925, 1.175, 0.49, 1.2725, 0.5875, 1.3725, 0.685, 0, 0.7825, 0.0975, 0.8825, 0.195, 0.98, 0.2925, 1.0775, 0.3925, 1.175, 0.49, 1.2725, 0.5875, 1.3725, 0.685, 0, 0.7825, 0.0975, 0.8825, 0.195, 0.98, 0.2925, 1.0775, 0.3925, 1.175, 0.49, 1.2725, 0.5875, 1.3725, 0.685],
  "SoftwareVersions": "syngo_MR_E11",
  "SpacingBetweenSlices": 2,
  "StationName": "MRC35049",
  "TaskName": "shinobi",
  "TotalReadoutTime": 0.0576811,
  "TxRefAmp": 249.674,
  "WipMemBlock": "b37cf1a0-e1a1-4009-8104-21f700833390||Sequence: R016 ve11c/master r/e634e98; Dec 19 2017 11:00:25 by eja",
  "dcmmeta_affine": [
    [-1.9920965433120728, -0.08976378291845322, 0.15327654778957367, 107.46800994873047],
    [-0.12893818318843842, 1.9177987575531006, -0.5526509284973145, -58.215370178222656],
    [0.1221727654337883, 0.560348629951477, 1.9160070419311523, -57.31233215332031],
    [0.0, 0.0, 0.0, 1.0]
],
  "dcmmeta_reorient_transform": [
    [0.0, -1.0, 0.0, 103.0],
    [1.0, 0.0, 0.0, 0.0],
    [0.0, 0.0, 1.0, 0.0],
    [0.0, 0.0, 0.0, 1.0]
],
  "dcmmeta_shape": [104, 104, 60, 486],
  "dcmmeta_slice_dim": 2,
  "dcmmeta_version": 0.6,
  "global": {
    "const": {
      "AcquisitionMatrix": [104, 0, 0, 104],
      "AngioFlag": "N",
      "BitsAllocated": 16,
      "BitsStored": 16,
      "BodyPartExamined": "BRAIN",
      "Columns": 832,
      "EchoNumbers": 1,
      "EchoTime": 37.0,
      "EchoTrainLength": 104,
      "FlipAngle": 52.0,
      "HighBit": 15,
      "ImageOrientationPatient": [0.99604828714417, 0.0644690891304, 0.06108638329335, -0.0448818929222, 0.95889935401486, -0.2801743110237],
      "ImagePositionPatient": [-790.67147319153, -884.33012175374, 159.89958887031],
      "ImageType": [
        "ORIGINAL",
        "PRIMARY",
        "M",
        "MB",
        "ND",
        "MOSAIC"
],
      "ImagedNucleus": "1H",
      "ImagingFrequency": 123.259045,
      "InPlanePhaseEncodingDirection": "COL",
      "MRAcquisitionType": "2D",
      "MagneticFieldStrength": 3.0,
      "Manufacturer": "SIEMENS",
      "ManufacturerModelName": "Prisma_fit",
      "Modality": "MR",
      "NumberOfAverages": 1.0,
      "NumberOfPhaseEncodingSteps": 104,
      "PercentPhaseFieldOfView": 100.0,
      "PercentSampling": 100.0,
      "PerformedProcedureStepStartTime": "105222.333000",
      "PhotometricInterpretation": "MONOCHROME2",
      "PixelBandwidth": 2290.0,
      "PixelRepresentation": 0,
      "PixelSpacing": [2.0, 2.0],
      "ProtocolName": "func_task-shinobi_run-4",
      "RepetitionTime": 1490.0,
      "Rows": 832,
      "SAR": 0.04088336459992,
      "SamplesPerPixel": 1,
      "ScanOptions": "FS",
      "ScanningSequence": "EP",
      "SequenceName": "epfid2d1_104",
      "SequenceVariant": [
        "SK",
        "SS"
],
      "SeriesDescription": "func_task-shinobi_run-4",
      "SeriesNumber": 15,
      "SeriesTime": "113138.802000",
      "SliceLocation": -30.582863529193,
      "SliceThickness": 2.0,
      "SmallestImagePixelValue": 0,
      "SoftwareVersions": "syngo MR E11",
      "SpacingBetweenSlices": 1.9999999490514,
      "SpecificCharacterSet": "ISO_IR 100",
      "StudyID": "1",
      "StudyTime": "105222.210000",
      "TransmitCoilName": "Body",
      "VariableFlipAngleFlag": "N",
      "WindowCenterWidthExplanation": "Algo1",
      "dBdt": 0.0},
    "slices": {}
  },
  "time": {
    "samples": {
      "AcquisitionNumber": [1, 2, 3, 4, 5, 6, 7, 8, 9, 10, 11, 12, 13, 14, 15, 16, 17, 18, 19, 20, 21, 22, 23, 24, 25, 26, 27, 28, 29, 30, 31, 32, 33, 34, 35, 36, 37, 38, 39, 40, 41, 42, 43, 44, 45, 46, 47, 48, 49, 50, 51, 52, 53, 54, 55, 56, 57, 58, 59, 60, 61, 62, 63, 64, 65, 66, 67, 68, 69, 70, 71, 72, 73, 74, 75, 76, 77, 78, 79, 80, 81, 82, 83, 84, 85, 86, 87, 88, 89, 90, 91, 92, 93, 94, 95, 96, 97, 98, 99, 100, 101, 102, 103, 104, 105, 106, 107, 108, 109, 110, 111, 112, 113, 114, 115, 116, 117, 118, 119, 120, 121, 122, 123, 124, 125, 126, 127, 128, 129, 130, 131, 132, 133, 134, 135, 136, 137, 138, 139, 140, 141, 142, 143, 144, 145, 146, 147, 148, 149, 150, 151, 152, 153, 154, 155, 156, 157, 158, 159, 160, 161, 162, 163, 164, 165, 166, 167, 168, 169, 170, 171, 172, 173, 174, 175, 176, 177, 178, 179, 180, 181, 182, 183, 184, 185, 186, 187, 188, 189, 190, 191, 192, 193, 194, 195, 196, 197, 198, 199, 200, 201, 202, 203, 204, 205, 206, 207, 208, 209, 210, 211, 212, 213, 214, 215, 216, 217, 218, 219, 220, 221, 222, 223, 224, 225, 226, 227, 228, 229, 230, 231, 232, 233, 234, 235, 236, 237, 238, 239, 240, 241, 242, 243, 244, 245, 246, 247, 248, 249, 250, 251, 252, 253, 254, 255, 256, 257, 258, 259, 260, 261, 262, 263, 264, 265, 266, 267, 268, 269, 270, 271, 272, 273, 274, 275, 276, 277, 278, 279, 280, 281, 282, 283, 284, 285, 286, 287, 288, 289, 290, 291, 292, 293, 294, 295, 296, 297, 298, 299, 300, 301, 302, 303, 304, 305, 306, 307, 308, 309, 310, 311, 312, 313, 314, 315, 316, 317, 318, 319, 320, 321, 322, 323, 324, 325, 326, 327, 328, 329, 330, 331, 332, 333, 334, 335, 336, 337, 338, 339, 340, 341, 342, 343, 344, 345, 346, 347, 348, 349, 350, 351, 352, 353, 354, 355, 356, 357, 358, 359, 360, 361, 362, 363, 364, 365, 366, 367, 368, 369, 370, 371, 372, 373, 374, 375, 376, 377, 378, 379, 380, 381, 382, 383, 384, 385, 386, 387, 388, 389, 390, 391, 392, 393, 394, 395, 396, 397, 398, 399, 400, 401, 402, 403, 404, 405, 406, 407, 408, 409, 410, 411, 412, 413, 414, 415, 416, 417, 418, 419, 420, 421, 422, 423, 424, 425, 426, 427, 428, 429, 430, 431, 432, 433, 434, 435, 436, 437, 438, 439, 440, 441, 442, 443, 444, 445, 446, 447, 448, 449, 450, 451, 452, 453, 454, 455, 456, 457, 458, 459, 460, 461, 462, 463, 464, 465, 466, 467, 468, 469, 470, 471, 472, 473, 474, 475, 476, 477, 478, 479, 480, 481, 482, 483, 484, 485, 486],
      "AcquisitionTime": ["113024.717500", "113026.207500", "113027.697500", "113029.187500", "113030.677500", "113032.167500", "113033.657500", "113035.147500", "113036.637500", "113038.127500", "113039.617500", "113041.107500", "113042.597500", "113044.087500", "113045.577500", "113047.067500", "113048.557500", "113050.047500", "113051.537500", "113053.027500", "113054.517500", "113056.007500", "113057.497500", "113058.987500", "113100.477500", "113101.967500", "113103.457500", "113104.947500", "113106.437500", "113107.927500", "113109.417500", "113110.907500", "113112.397500", "113113.887500", "113115.377500", "113116.867500", "113118.357500", "113119.847500", "113121.337500", "113122.827500", "113124.317500", "113125.807500", "113127.297500", "113128.787500", "113130.277500", "113131.767500", "113133.257500", "113134.747500", "113136.237500", "113137.727500", "113139.217500", "113140.707500", "113142.197500", "113143.687500", "113145.177500", "113146.667500", "113148.157500", "113149.647500", "113151.137500", "113152.627500", "113154.117500", "113155.607500", "113157.097500", "113158.587500", "113200.077500", "113201.567500", "113203.057500", "113204.547500", "113206.037500", "113207.527500", "113209.017500", "113210.507500", "113211.997500", "113213.487500", "113214.977500", "113216.467500", "113217.957500", "113219.447500", "113220.937500", "113222.427500", "113223.917500", "113225.407500", "113226.897500", "113228.387500", "113229.877500", "113231.367500", "113232.857500", "113234.347500", "113235.837500", "113237.327500", "113238.817500", "113240.307500", "113241.797500", "113243.287500", "113244.777500", "113246.267500", "113247.757500", "113249.247500", "113250.737500", "113252.227500", "113253.717500", "113255.207500", "113256.697500", "113258.187500", "113259.677500", "113301.167500", "113302.657500", "113304.147500", "113305.637500", "113307.127500", "113308.617500", "113310.107500", "113311.597500", "113313.087500", "113314.577500", "113316.067500", "113317.557500", "113319.047500", "113320.537500", "113322.027500", "113323.517500", "113325.007500", "113326.497500", "113327.987500", "113329.477500", "113330.967500", "113332.457500", "113333.947500", "113335.437500", "113336.927500", "113338.417500", "113339.907500", "113341.397500", "113342.887500", "113344.377500", "113345.867500", "113347.357500", "113348.847500", "113350.337500", "113351.827500", "113353.317500", "113354.807500", "113356.297500", "113357.787500", "113359.277500", "113400.767500", "113402.257500", "113403.747500", "113405.237500", "113406.727500", "113408.217500", "113409.707500", "113411.197500", "113412.687500", "113414.177500", "113415.667500", "113417.157500", "113418.647500", "113420.137500", "113421.627500", "113423.117500", "113424.607500", "113426.097500", "113427.587500", "113429.077500", "113430.567500", "113432.057500", "113433.547500", "113435.037500", "113436.527500", "113438.017500", "113439.507500", "113440.997500", "113442.487500", "113443.977500", "113445.467500", "113446.957500", "113448.447500", "113449.937500", "113451.427500", "113452.917500", "113454.407500", "113455.897500", "113457.387500", "113458.877500", "113500.367500", "113501.857500", "113503.347500", "113504.837500", "113506.327500", "113507.817500", "113509.307500", "113510.797500", "113512.287500", "113513.777500", "113515.267500", "113516.757500", "113518.247500", "113519.737500", "113521.227500", "113522.717500", "113524.207500", "113525.697500", "113527.187500", "113528.677500", "113530.167500", "113531.657500", "113533.147500", "113534.637500", "113536.127500", "113537.617500", "113539.107500", "113540.597500", "113542.087500", "113543.577500", "113545.067500", "113546.557500", "113548.047500", "113549.537500", "113551.027500", "113552.517500", "113554.007500", "113555.497500", "113556.987500", "113558.477500", "113559.967500", "113601.457500", "113602.947500", "113604.437500", "113605.927500", "113607.417500", "113608.907500", "113610.397500", "113611.887500", "113613.377500", "113614.867500", "113616.357500", "113617.847500", "113619.337500", "113620.827500", "113622.317500", "113623.807500", "113625.297500", "113626.787500", "113628.277500", "113629.767500", "113631.257500", "113632.747500", "113634.237500", "113635.727500", "113637.217500", "113638.707500", "113640.197500", "113641.687500", "113643.177500", "113644.667500", "113646.157500", "113647.647500", "113649.137500", "113650.627500", "113652.117500", "113653.607500", "113655.097500", "113656.587500", "113658.077500", "113659.567500", "113701.057500", "113702.547500", "113704.037500", "113705.527500", "113707.017500", "113708.507500", "113709.997500", "113711.487500", "113712.977500", "113714.467500", "113715.957500", "113717.447500", "113718.937500", "113720.427500", "113721.917500", "113723.407500", "113724.897500", "113726.387500", "113727.877500", "113729.367500", "113730.857500", "113732.347500", "113733.837500", "113735.327500", "113736.817500", "113738.307500", "113739.797500", "113741.287500", "113742.777500", "113744.267500", "113745.757500", "113747.247500", "113748.737500", "113750.227500", "113751.717500", "113753.207500", "113754.697500", "113756.187500", "113757.677500", "113759.167500", "113800.657500", "113802.147500", "113803.637500", "113805.127500", "113806.617500", "113808.107500", "113809.597500", "113811.087500", "113812.577500", "113814.067500", "113815.557500", "113817.047500", "113818.537500", "113820.027500", "113821.517500", "113823.007500", "113824.497500", "113825.987500", "113827.477500", "113828.967500", "113830.457500", "113831.947500", "113833.437500", "113834.927500", "113836.417500", "113837.907500", "113839.397500", "113840.887500", "113842.377500", "113843.867500", "113845.357500", "113846.847500", "113848.337500", "113849.827500", "113851.317500", "113852.807500", "113854.297500", "113855.787500", "113857.277500", "113858.767500", "113900.257500", "113901.747500", "113903.237500", "113904.727500", "113906.217500", "113907.707500", "113909.197500", "113910.687500", "113912.177500", "113913.667500", "113915.157500", "113916.647500", "113918.137500", "113919.627500", "113921.117500", "113922.607500", "113924.097500", "113925.587500", "113927.077500", "113928.567500", "113930.057500", "113931.547500", "113933.037500", "113934.527500", "113936.017500", "113937.507500", "113938.997500", "113940.487500", "113941.977500", "113943.467500", "113944.957500", "113946.447500", "113947.937500", "113949.427500", "113950.917500", "113952.407500", "113953.897500", "113955.387500", "113956.877500", "113958.367500", "113959.857500", "114001.347500", "114002.837500", "114004.327500", "114005.817500", "114007.307500", "114008.797500", "114010.287500", "114011.777500", "114013.267500", "114014.757500", "114016.247500", "114017.737500", "114019.227500", "114020.717500", "114022.207500", "114023.697500", "114025.187500", "114026.677500", "114028.167500", "114029.657500", "114031.147500", "114032.637500", "114034.127500", "114035.617500", "114037.107500", "114038.597500", "114040.087500", "114041.577500", "114043.067500", "114044.557500", "114046.047500", "114047.537500", "114049.027500", "114050.517500", "114052.007500", "114053.497500", "114054.987500", "114056.477500", "114057.967500", "114059.457500", "114100.947500", "114102.437500", "114103.927500", "114105.417500", "114106.907500", "114108.397500", "114109.887500", "114111.377500", "114112.867500", "114114.357500", "114115.847500", "114117.337500", "114118.827500", "114120.317500", "114121.807500", "114123.297500", "114124.787500", "114126.277500", "114127.767500", "114129.257500", "114130.747500", "114132.237500", "114133.727500", "114135.217500", "114136.707500", "114138.197500", "114139.687500", "114141.177500", "114142.667500", "114144.157500", "114145.647500", "114147.137500", "114148.627500", "114150.117500", "114151.607500", "114153.097500", "114154.587500", "114156.077500", "114157.567500", "114159.057500", "114200.547500", "114202.037500", "114203.527500", "114205.017500", "114206.507500", "114207.997500", "114209.487500", "114210.977500", "114212.467500", "114213.957500", "114215.447500", "114216.937500", "114218.427500", "114219.917500", "114221.407500", "114222.897500", "114224.387500", "114225.877500", "114227.367500"],
      "ContentTime": ["113138.805000", "113138.808000", "113138.811000", "113138.814000", "113138.817000", "113138.820000", "113138.823000", "113138.825000", "113138.828000", "113138.831000", "113138.834000", "113138.842000", "113138.845000", "113138.848000", "113138.851000", "113138.860000", "113138.863000", "113138.872000", "113138.875000", "113138.878000", "113138.881000", "113158.771000", "113158.774000", "113158.777000", "113158.780000", "113158.783000", "113158.785000", "113158.788000", "113158.791000", "113158.794000", "113158.797000", "113158.800000", "113158.803000", "113158.805000", "113158.808000", "113158.811000", "113158.814000", "113158.817000", "113158.820000", "113158.823000", "113158.825000", "113218.771000", "113218.774000", "113218.777000", "113218.780000", "113218.782000", "113218.785000", "113218.792000", "113218.795000", "113218.798000", "113218.801000", "113218.803000", "113218.806000", "113218.809000", "113218.812000", "113218.815000", "113218.818000", "113218.821000", "113218.824000", "113218.826000", "113218.829000", "113238.772000", "113238.775000", "113238.778000", "113238.780000", "113238.783000", "113238.786000", "113238.789000", "113238.792000", "113238.795000", "113238.798000", "113238.801000", "113238.803000", "113238.806000", "113238.809000", "113238.812000", "113238.815000", "113238.818000", "113238.821000", "113238.823000", "113238.826000", "113258.772000", "113258.775000", "113258.778000", "113258.781000", "113258.783000", "113258.786000", "113258.790000", "113258.793000", "113258.796000", "113258.799000", "113258.802000", "113258.818000", "113258.821000", "113258.824000", "113258.827000", "113258.830000", "113258.833000", "113258.835000", "113258.838000", "113258.841000", "113338.771000", "113338.774000", "113338.777000", "113338.780000", "113338.783000", "113338.786000", "113338.788000", "113338.791000", "113338.794000", "113338.797000", "113338.800000", "113338.803000", "113338.806000", "113338.809000", "113338.811000", "113338.814000", "113338.817000", "113338.820000", "113338.823000", "113338.826000", "113338.829000", "113338.831000", "113338.834000", "113338.837000", "113338.840000", "113338.843000", "113338.846000", "113338.849000", "113418.771000", "113418.774000", "113418.777000", "113418.780000", "113418.783000", "113418.786000", "113418.789000", "113418.791000", "113418.794000", "113418.797000", "113418.800000", "113418.803000", "113418.806000", "113418.809000", "113418.812000", "113418.815000", "113418.818000", "113418.821000", "113418.824000", "113418.827000", "113418.830000", "113418.833000", "113418.836000", "113418.839000", "113418.841000", "113418.844000", "113418.847000", "113458.772000", "113458.775000", "113458.778000", "113458.781000", "113458.784000", "113458.787000", "113458.790000", "113458.792000", "113458.795000", "113458.798000", "113458.801000", "113458.804000", "113458.807000", "113458.810000", "113458.813000", "113458.815000", "113458.818000", "113458.821000", "113458.824000", "113458.827000", "113458.830000", "113458.833000", "113458.836000", "113458.839000", "113458.841000", "113458.844000", "113458.847000", "113538.771000", "113538.774000", "113538.777000", "113538.780000", "113538.783000", "113538.785000", "113538.788000", "113538.791000", "113538.794000", "113538.797000", "113538.800000", "113538.803000", "113538.806000", "113538.808000", "113538.811000", "113538.814000", "113538.817000", "113538.820000", "113538.823000", "113538.826000", "113538.829000", "113538.831000", "113538.834000", "113538.837000", "113538.840000", "113538.843000", "113538.846000", "113618.771000", "113618.774000", "113618.777000", "113618.780000", "113618.783000", "113618.786000", "113618.788000", "113618.791000", "113618.794000", "113618.797000", "113618.800000", "113618.803000", "113618.806000", "113618.809000", "113618.811000", "113618.814000", "113618.817000", "113618.820000", "113618.823000", "113618.826000", "113618.829000", "113618.832000", "113618.834000", "113618.837000", "113618.840000", "113618.843000", "113618.846000", "113658.771000", "113658.774000", "113658.777000", "113658.780000", "113658.783000", "113658.786000", "113658.788000", "113658.791000", "113658.794000", "113658.797000", "113658.800000", "113658.803000", "113658.806000", "113658.816000", "113658.819000", "113658.822000", "113658.825000", "113658.828000", "113658.831000", "113658.834000", "113658.836000", "113658.839000", "113658.842000", "113658.845000", "113658.848000", "113658.851000", "113738.772000", "113738.775000", "113738.778000", "113738.781000", "113738.784000", "113738.787000", "113738.790000", "113738.792000", "113738.795000", "113738.798000", "113738.801000", "113738.804000", "113738.807000", "113738.810000", "113738.813000", "113738.815000", "113738.818000", "113738.821000", "113738.824000", "113738.827000", "113738.830000", "113738.833000", "113738.835000", "113738.838000", "113738.841000", "113738.844000", "113738.847000", "113818.771000", "113818.774000", "113818.777000", "113818.780000", "113818.799000", "113818.803000", "113818.806000", "113818.809000", "113818.812000", "113818.815000", "113818.817000", "113818.820000", "113818.823000", "113818.827000", "113818.829000", "113818.832000", "113818.835000", "113818.838000", "113818.841000", "113818.844000", "113818.847000", "113818.850000", "113818.853000", "113818.856000", "113818.859000", "113818.862000", "113818.865000", "113858.771000", "113858.774000", "113858.777000", "113858.780000", "113858.783000", "113858.786000", "113858.789000", "113858.791000", "113858.794000", "113858.797000", "113858.800000", "113858.803000", "113858.806000", "113858.809000", "113858.812000", "113858.814000", "113858.817000", "113858.820000", "113858.823000", "113858.826000", "113858.829000", "113858.832000", "113858.835000", "113858.837000", "113858.840000", "113858.843000", "113858.846000", "113938.772000", "113938.775000", "113938.778000", "113938.781000", "113938.784000", "113938.787000", "113938.789000", "113938.792000", "113938.795000", "113938.798000", "113938.801000", "113938.804000", "113938.807000", "113938.810000", "113938.813000", "113938.816000", "113938.818000", "113938.821000", "113938.824000", "113938.827000", "113938.830000", "113938.833000", "113938.836000", "113938.839000", "113938.841000", "113938.844000", "113938.847000", "114018.771000", "114018.774000", "114018.777000", "114018.780000", "114018.783000", "114018.786000", "114018.789000", "114018.791000", "114018.794000", "114018.797000", "114018.800000", "114018.803000", "114018.806000", "114018.809000", "114018.812000", "114018.814000", "114018.817000", "114018.820000", "114018.823000", "114018.826000", "114018.829000", "114018.832000", "114018.835000", "114018.838000", "114018.840000", "114018.843000", "114018.846000", "114058.771000", "114058.774000", "114058.777000", "114058.780000", "114058.783000", "114058.786000", "114058.789000", "114058.791000", "114058.794000", "114058.797000", "114058.800000", "114058.803000", "114058.806000", "114058.809000", "114058.812000", "114058.814000", "114058.817000", "114058.820000", "114058.823000", "114058.826000", "114058.829000", "114058.832000", "114058.835000", "114058.838000", "114058.840000", "114058.843000", "114058.846000", "114138.771000", "114138.774000", "114138.777000", "114138.780000", "114138.783000", "114138.786000", "114138.789000", "114138.793000", "114138.796000", "114138.798000", "114138.801000", "114138.804000", "114138.807000", "114138.810000", "114138.813000", "114138.816000", "114138.818000", "114138.821000", "114138.824000", "114138.827000", "114138.830000", "114138.833000", "114138.836000", "114138.839000", "114138.842000", "114138.845000", "114218.771000", "114218.774000", "114218.777000", "114218.780000", "114218.783000", "114218.786000", "114218.789000", "114218.791000", "114218.794000", "114218.797000", "114218.800000", "114218.803000", "114218.806000", "114218.809000", "114218.812000", "114218.814000", "114218.817000", "114218.820000", "114218.823000", "114218.826000", "114218.829000", "114218.832000", "114218.835000", "114218.838000", "114218.840000", "114218.843000", "114218.846000", "114230.891000", "114230.895000", "114230.898000", "114230.901000", "114230.904000", "114230.917000", "114230.920000", "114230.923000"],
