{
  "AcquisitionMatrixPE": 104,
  "AcquisitionNumber": 1,
  "AcquisitionTime": "11:45:17.445000",
  "BandwidthPerPixelPhaseEncode": 17.17,
  "BaseResolution": 104,
  "BodyPartExamined": "BRAIN",
  "CoilString": "HC1-7;NC1_2",
  "ConsistencyInfo": "N4_VE11C_LATEST_20160120",
  "ConversionSoftware": "dcm2niix",
  "ConversionSoftwareVersion": "v1.0.20190902",
  "DerivedVendorReportedEchoSpacing": 0.000560011,
  "DeviceSerialNumber": "167006",
  "DwellTime": 2.1e-06,
  "EchoTime": 0.037,
  "EchoTrainLength": 104,
  "EffectiveEchoSpacing": 0.000560011,
  "FlipAngle": 52,
  "ImageComments": "Unaliased_MB4_PE3_LB",
  "ImageOrientationPatientDICOM": [0.999658, 0.0232534, 0.0119256, -0.0143078, 0.868869, -0.494836],
  "ImageType": [
    "ORIGINAL",
    "PRIMARY",
    "M",
    "MB",
    "ND",
    "MOSAIC"
],
  "ImagingFrequency": 123.259,
  "InPlanePhaseEncodingDirectionDICOM": "COL",
  "InstitutionAddress": "Chemin_Queen-Mary_4565_Montreal_District_CA_H3W_1W5",
  "InstitutionName": "IUGM",
  "InstitutionalDepartmentName": "Department",
  "MRAcquisitionType": "2D",
  "MagneticFieldStrength": 3,
  "Manufacturer": "Siemens",
  "ManufacturersModelName": "Prisma_fit",
  "Modality": "MR",
  "MultibandAccelerationFactor": 4,
  "PartialFourier": 1,
  "PatientPosition": "HFS",
  "PercentPhaseFOV": 100,
  "PhaseEncodingDirection": "j",
  "PhaseEncodingSteps": 104,
  "PhaseResolution": 1,
  "PixelBandwidth": 2290,
  "ProcedureStepDescription": "games_shinobi",
  "ProtocolName": "func_task-shinobi_run-5",
  "PulseSequenceDetails": "%CustomerSeq%_cmrr_mbep2d_bold",
  "ReceiveCoilActiveElements": "HC1-7;NC1,2",
  "ReceiveCoilName": "HeadNeck_64",
  "ReconMatrixPE": 104,
  "RepetitionTime": 1.49,
  "SAR": 0.0350536,
  "ScanOptions": "FS",
  "ScanningSequence": "EP",
  "SequenceName": "epfid2d1_104",
  "SequenceVariant": "SK_SS",
  "SeriesDescription": "func_task-shinobi_run-5",
  "SeriesNumber": 17,
  "ShimSetting": [616, -7204, -8878, 371, -30, -161, 13, -16],
  "SliceThickness": 2,
  "SliceTiming": [0, 0.785, 0.1, 0.8825, 0.1975, 0.98, 0.295, 1.0775, 0.3925, 1.1775, 0.49, 1.275, 0.5875, 1.3725, 0.6875, 0, 0.785, 0.1, 0.8825, 0.1975, 0.98, 0.295, 1.0775, 0.3925, 1.1775, 0.49, 1.275, 0.5875, 1.3725, 0.6875, 0, 0.785, 0.1, 0.8825, 0.1975, 0.98, 0.295, 1.0775, 0.3925, 1.1775, 0.49, 1.275, 0.5875, 1.3725, 0.6875, 0, 0.785, 0.1, 0.8825, 0.1975, 0.98, 0.295, 1.0775, 0.3925, 1.1775, 0.49, 1.275, 0.5875, 1.3725, 0.6875],
  "SoftwareVersions": "syngo_MR_E11",
  "SpacingBetweenSlices": 2,
  "StationName": "MRC35049",
  "TaskName": "shinobi",
  "TotalReadoutTime": 0.0576811,
  "TxRefAmp": 248.415,
  "WipMemBlock": "a84ada48-a4b6-43a6-b961-e3be261ea1da||Sequence: R016 ve11c/master r/e634e98; Dec 19 2017 11:00:25 by eja",
  "dcmmeta_affine": [
    [-1.999316930770874, -0.028615640476346016, 0.043736718595027924, 107.65736389160156],
    [-0.04650676250457764, 1.7377372980117798, -0.9889925718307495, -49.37654495239258],
    [0.02385113388299942, 0.9896718859672546, 1.737809181213379, -98.89203643798828],
    [0.0, 0.0, 0.0, 1.0]
],
  "dcmmeta_reorient_transform": [
    [0.0, -1.0, 0.0, 103.0],
    [1.0, 0.0, 0.0, 0.0],
    [0.0, 0.0, 1.0, 0.0],
    [0.0, 0.0, 0.0, 1.0]
],
  "dcmmeta_shape": [104, 104, 60, 484],
  "dcmmeta_slice_dim": 2,
  "dcmmeta_version": 0.6,
  "global": {
    "const": {
      "AcquisitionMatrix": [104, 0, 0, 104],
      "AngioFlag": "N",
      "BitsAllocated": 16,
      "BitsStored": 16,
      "BodyPartExamined": "BRAIN",
      "Columns": 832,
      "EchoNumbers": 1,
      "EchoTime": 37.0,
      "EchoTrainLength": 104,
      "FlipAngle": 52.0,
      "HighBit": 15,
      "ImageOrientationPatient": [0.99965847224401, 0.02325338086241, 0.01192556704054, -0.0143078204069, 0.86886862282138, -0.4948359349842],
      "ImagePositionPatient": [-822.04522564295, -779.07521134958, 354.60291737057],
      "ImageType": [
        "ORIGINAL",
        "PRIMARY",
        "M",
        "MB",
        "ND",
        "MOSAIC"
],
      "ImagedNucleus": "1H",
      "ImagingFrequency": 123.259376,
      "InPlanePhaseEncodingDirection": "COL",
      "MRAcquisitionType": "2D",
      "MagneticFieldStrength": 3.0,
      "Manufacturer": "SIEMENS",
      "ManufacturerModelName": "Prisma_fit",
      "Modality": "MR",
      "NumberOfAverages": 1.0,
      "NumberOfPhaseEncodingSteps": 104,
      "PercentPhaseFieldOfView": 100.0,
      "PercentSampling": 100.0,
      "PerformedProcedureStepStartTime": "104408.677000",
      "PhotometricInterpretation": "MONOCHROME2",
      "PixelBandwidth": 2290.0,
      "PixelRepresentation": 0,
      "PixelSpacing": [2.0, 2.0],
      "ProtocolName": "func_task-shinobi_run-5",
      "RepetitionTime": 1490.0,
      "Rows": 832,
      "SAR": 0.03505359856737,
      "SamplesPerPixel": 1,
      "ScanOptions": "FS",
      "ScanningSequence": "EP",
      "SequenceName": "epfid2d1_104",
      "SequenceVariant": [
        "SK",
        "SS"
],
      "SeriesDescription": "func_task-shinobi_run-5",
      "SeriesNumber": 17,
      "SeriesTime": "114646.407000",
      "SliceLocation": -59.156932686781,
      "SliceThickness": 2.0,
      "SmallestImagePixelValue": 0,
      "SoftwareVersions": "syngo MR E11",
      "SpacingBetweenSlices": 1.999999973941,
      "SpecificCharacterSet": "ISO_IR 100",
      "StudyID": "1",
      "StudyTime": "104408.585000",
      "TransmitCoilName": "Body",
      "VariableFlipAngleFlag": "N",
      "WindowCenterWidthExplanation": "Algo1",
      "dBdt": 0.0},
    "slices": {}
  },
  "time": {
    "samples": {
      "AcquisitionNumber": [1, 2, 3, 4, 5, 6, 7, 8, 9, 10, 11, 12, 13, 14, 15, 16, 17, 18, 19, 20, 21, 22, 23, 24, 25, 26, 27, 28, 29, 30, 31, 32, 33, 34, 35, 36, 37, 38, 39, 40, 41, 42, 43, 44, 45, 46, 47, 48, 49, 50, 51, 52, 53, 54, 55, 56, 57, 58, 59, 60, 61, 62, 63, 64, 65, 66, 67, 68, 69, 70, 71, 72, 73, 74, 75, 76, 77, 78, 79, 80, 81, 82, 83, 84, 85, 86, 87, 88, 89, 90, 91, 92, 93, 94, 95, 96, 97, 98, 99, 100, 101, 102, 103, 104, 105, 106, 107, 108, 109, 110, 111, 112, 113, 114, 115, 116, 117, 118, 119, 120, 121, 122, 123, 124, 125, 126, 127, 128, 129, 130, 131, 132, 133, 134, 135, 136, 137, 138, 139, 140, 141, 142, 143, 144, 145, 146, 147, 148, 149, 150, 151, 152, 153, 154, 155, 156, 157, 158, 159, 160, 161, 162, 163, 164, 165, 166, 167, 168, 169, 170, 171, 172, 173, 174, 175, 176, 177, 178, 179, 180, 181, 182, 183, 184, 185, 186, 187, 188, 189, 190, 191, 192, 193, 194, 195, 196, 197, 198, 199, 200, 201, 202, 203, 204, 205, 206, 207, 208, 209, 210, 211, 212, 213, 214, 215, 216, 217, 218, 219, 220, 221, 222, 223, 224, 225, 226, 227, 228, 229, 230, 231, 232, 233, 234, 235, 236, 237, 238, 239, 240, 241, 242, 243, 244, 245, 246, 247, 248, 249, 250, 251, 252, 253, 254, 255, 256, 257, 258, 259, 260, 261, 262, 263, 264, 265, 266, 267, 268, 269, 270, 271, 272, 273, 274, 275, 276, 277, 278, 279, 280, 281, 282, 283, 284, 285, 286, 287, 288, 289, 290, 291, 292, 293, 294, 295, 296, 297, 298, 299, 300, 301, 302, 303, 304, 305, 306, 307, 308, 309, 310, 311, 312, 313, 314, 315, 316, 317, 318, 319, 320, 321, 322, 323, 324, 325, 326, 327, 328, 329, 330, 331, 332, 333, 334, 335, 336, 337, 338, 339, 340, 341, 342, 343, 344, 345, 346, 347, 348, 349, 350, 351, 352, 353, 354, 355, 356, 357, 358, 359, 360, 361, 362, 363, 364, 365, 366, 367, 368, 369, 370, 371, 372, 373, 374, 375, 376, 377, 378, 379, 380, 381, 382, 383, 384, 385, 386, 387, 388, 389, 390, 391, 392, 393, 394, 395, 396, 397, 398, 399, 400, 401, 402, 403, 404, 405, 406, 407, 408, 409, 410, 411, 412, 413, 414, 415, 416, 417, 418, 419, 420, 421, 422, 423, 424, 425, 426, 427, 428, 429, 430, 431, 432, 433, 434, 435, 436, 437, 438, 439, 440, 441, 442, 443, 444, 445, 446, 447, 448, 449, 450, 451, 452, 453, 454, 455, 456, 457, 458, 459, 460, 461, 462, 463, 464, 465, 466, 467, 468, 469, 470, 471, 472, 473, 474, 475, 476, 477, 478, 479, 480, 481, 482, 483, 484],
      "AcquisitionTime": ["114517.445000", "114518.935000", "114520.425000", "114521.915000", "114523.405000", "114524.895000", "114526.385000", "114527.875000", "114529.365000", "114530.855000", "114532.345000", "114533.835000", "114535.325000", "114536.815000", "114538.305000", "114539.795000", "114541.285000", "114542.775000", "114544.265000", "114545.755000", "114547.245000", "114548.735000", "114550.225000", "114551.715000", "114553.205000", "114554.695000", "114556.185000", "114557.675000", "114559.165000", "114600.655000", "114602.145000", "114603.635000", "114605.125000", "114606.615000", "114608.105000", "114609.595000", "114611.085000", "114612.575000", "114614.065000", "114615.555000", "114617.045000", "114618.535000", "114620.025000", "114621.515000", "114623.005000", "114624.495000", "114625.985000", "114627.475000", "114628.965000", "114630.455000", "114631.945000", "114633.435000", "114634.925000", "114636.415000", "114637.905000", "114639.395000", "114640.885000", "114642.375000", "114643.865000", "114645.355000", "114646.845000", "114648.335000", "114649.825000", "114651.315000", "114652.805000", "114654.295000", "114655.785000", "114657.275000", "114658.765000", "114700.255000", "114701.745000", "114703.235000", "114704.725000", "114706.215000", "114707.705000", "114709.195000", "114710.685000", "114712.175000", "114713.665000", "114715.155000", "114716.645000", "114718.135000", "114719.625000", "114721.115000", "114722.605000", "114724.095000", "114725.585000", "114727.075000", "114728.565000", "114730.055000", "114731.545000", "114733.035000", "114734.525000", "114736.015000", "114737.505000", "114738.995000", "114740.485000", "114741.975000", "114743.465000", "114744.955000", "114746.445000", "114747.935000", "114749.425000", "114750.915000", "114752.405000", "114753.895000", "114755.385000", "114756.875000", "114758.365000", "114759.855000", "114801.345000", "114802.835000", "114804.325000", "114805.815000", "114807.305000", "114808.795000", "114810.285000", "114811.775000", "114813.265000", "114814.755000", "114816.245000", "114817.735000", "114819.225000", "114820.715000", "114822.205000", "114823.695000", "114825.185000", "114826.675000", "114828.165000", "114829.655000", "114831.145000", "114832.635000", "114834.125000", "114835.615000", "114837.105000", "114838.595000", "114840.085000", "114841.575000", "114843.065000", "114844.555000", "114846.045000", "114847.535000", "114849.025000", "114850.515000", "114852.005000", "114853.495000", "114854.985000", "114856.475000", "114857.965000", "114859.455000", "114900.945000", "114902.435000", "114903.925000", "114905.415000", "114906.905000", "114908.395000", "114909.885000", "114911.375000", "114912.865000", "114914.355000", "114915.845000", "114917.335000", "114918.825000", "114920.315000", "114921.805000", "114923.295000", "114924.785000", "114926.275000", "114927.765000", "114929.255000", "114930.745000", "114932.235000", "114933.725000", "114935.215000", "114936.705000", "114938.195000", "114939.685000", "114941.175000", "114942.665000", "114944.155000", "114945.645000", "114947.135000", "114948.625000", "114950.115000", "114951.605000", "114953.095000", "114954.585000", "114956.075000", "114957.565000", "114959.055000", "115000.545000", "115002.035000", "115003.525000", "115005.015000", "115006.505000", "115007.995000", "115009.485000", "115010.975000", "115012.465000", "115013.955000", "115015.445000", "115016.935000", "115018.425000", "115019.915000", "115021.405000", "115022.895000", "115024.385000", "115025.875000", "115027.365000", "115028.855000", "115030.345000", "115031.835000", "115033.325000", "115034.815000", "115036.305000", "115037.795000", "115039.285000", "115040.775000", "115042.265000", "115043.755000", "115045.245000", "115046.735000", "115048.225000", "115049.715000", "115051.205000", "115052.695000", "115054.185000", "115055.675000", "115057.165000", "115058.655000", "115100.145000", "115101.635000", "115103.125000", "115104.615000", "115106.105000", "115107.595000", "115109.085000", "115110.575000", "115112.065000", "115113.555000", "115115.045000", "115116.535000", "115118.025000", "115119.515000", "115121.005000", "115122.495000", "115123.985000", "115125.475000", "115126.965000", "115128.455000", "115129.945000", "115131.435000", "115132.925000", "115134.415000", "115135.905000", "115137.395000", "115138.885000", "115140.375000", "115141.865000", "115143.355000", "115144.845000", "115146.335000", "115147.825000", "115149.315000", "115150.805000", "115152.295000", "115153.785000", "115155.275000", "115156.765000", "115158.255000", "115159.745000", "115201.235000", "115202.725000", "115204.215000", "115205.705000", "115207.195000", "115208.685000", "115210.175000", "115211.665000", "115213.155000", "115214.645000", "115216.135000", "115217.625000", "115219.115000", "115220.605000", "115222.095000", "115223.585000", "115225.075000", "115226.565000", "115228.055000", "115229.545000", "115231.035000", "115232.525000", "115234.015000", "115235.505000", "115236.995000", "115238.485000", "115239.975000", "115241.465000", "115242.955000", "115244.445000", "115245.935000", "115247.425000", "115248.915000", "115250.405000", "115251.895000", "115253.385000", "115254.875000", "115256.365000", "115257.855000", "115259.345000", "115300.835000", "115302.325000", "115303.815000", "115305.305000", "115306.795000", "115308.285000", "115309.775000", "115311.265000", "115312.755000", "115314.245000", "115315.735000", "115317.225000", "115318.715000", "115320.205000", "115321.695000", "115323.185000", "115324.675000", "115326.165000", "115327.655000", "115329.145000", "115330.635000", "115332.125000", "115333.615000", "115335.105000", "115336.595000", "115338.085000", "115339.575000", "115341.065000", "115342.555000", "115344.045000", "115345.535000", "115347.025000", "115348.515000", "115350.005000", "115351.495000", "115352.985000", "115354.475000", "115355.965000", "115357.455000", "115358.945000", "115400.435000", "115401.925000", "115403.415000", "115404.905000", "115406.395000", "115407.885000", "115409.375000", "115410.865000", "115412.355000", "115413.845000", "115415.335000", "115416.825000", "115418.315000", "115419.805000", "115421.295000", "115422.785000", "115424.275000", "115425.765000", "115427.255000", "115428.745000", "115430.235000", "115431.725000", "115433.215000", "115434.705000", "115436.195000", "115437.685000", "115439.175000", "115440.665000", "115442.155000", "115443.645000", "115445.135000", "115446.625000", "115448.115000", "115449.605000", "115451.095000", "115452.585000", "115454.075000", "115455.565000", "115457.055000", "115458.545000", "115500.035000", "115501.525000", "115503.015000", "115504.505000", "115505.995000", "115507.485000", "115508.975000", "115510.465000", "115511.955000", "115513.445000", "115514.935000", "115516.425000", "115517.915000", "115519.405000", "115520.895000", "115522.385000", "115523.875000", "115525.365000", "115526.855000", "115528.345000", "115529.835000", "115531.325000", "115532.815000", "115534.305000", "115535.795000", "115537.285000", "115538.775000", "115540.265000", "115541.755000", "115543.245000", "115544.735000", "115546.225000", "115547.715000", "115549.205000", "115550.695000", "115552.185000", "115553.675000", "115555.165000", "115556.655000", "115558.145000", "115559.635000", "115601.125000", "115602.615000", "115604.105000", "115605.595000", "115607.085000", "115608.575000", "115610.065000", "115611.555000", "115613.045000", "115614.535000", "115616.025000", "115617.515000", "115619.005000", "115620.495000", "115621.985000", "115623.475000", "115624.965000", "115626.455000", "115627.945000", "115629.435000", "115630.925000", "115632.415000", "115633.905000", "115635.395000", "115636.885000", "115638.375000", "115639.865000", "115641.355000", "115642.845000", "115644.335000", "115645.825000", "115647.315000", "115648.805000", "115650.295000", "115651.785000", "115653.275000", "115654.765000", "115656.255000", "115657.745000", "115659.235000", "115700.725000", "115702.215000", "115703.705000", "115705.195000", "115706.685000", "115708.175000", "115709.665000", "115711.155000", "115712.645000", "115714.135000", "115715.625000", "115717.115000"],
      "ContentTime": ["114646.410000", "114646.413000", "114646.416000", "114646.419000", "114646.424000", "114646.427000", "114646.436000", "114646.439000", "114646.442000", "114646.445000", "114646.448000", "114646.451000", "114646.453000", "114646.456000", "114646.459000", "114646.462000", "114646.465000", "114646.468000", "114646.471000", "114646.474000", "114646.477000", "114646.480000", "114646.482000", "114646.486000", "114646.489000", "114646.492000", "114646.495000", "114646.497000", "114646.500000", "114646.503000", "114646.506000", "114646.509000", "114646.512000", "114706.382000", "114706.385000", "114706.388000", "114706.391000", "114706.394000", "114706.404000", "114706.407000", "114706.410000", "114706.413000", "114706.416000", "114706.418000", "114706.421000", "114706.424000", "114706.427000", "114706.430000", "114706.433000", "114706.436000", "114706.439000", "114706.442000", "114706.444000", "114726.382000", "114726.385000", "114726.388000", "114726.391000", "114726.394000", "114726.397000", "114726.400000", "114726.402000", "114726.405000", "114726.408000", "114726.411000", "114726.414000", "114726.417000", "114726.420000", "114726.423000", "114726.426000", "114726.429000", "114726.431000", "114726.434000", "114726.437000", "114726.440000", "114746.382000", "114746.385000", "114746.388000", "114746.391000", "114746.394000", "114746.397000", "114746.400000", "114746.403000", "114746.406000", "114746.409000", "114746.411000", "114746.414000", "114746.417000", "114746.420000", "114746.423000", "114746.426000", "114746.429000", "114746.432000", "114746.435000", "114746.438000", "114826.383000", "114826.386000", "114826.389000", "114826.392000", "114826.395000", "114826.398000", "114826.401000", "114826.404000", "114826.407000", "114826.410000", "114826.412000", "114826.415000", "114826.419000", "114826.422000", "114826.425000", "114826.428000", "114826.430000", "114826.433000", "114826.436000", "114826.439000", "114826.442000", "114826.445000", "114826.448000", "114826.451000", "114826.454000", "114826.457000", "114826.460000", "114826.463000", "114826.466000", "114826.468000", "114826.471000", "114826.474000", "114906.382000", "114906.385000", "114906.388000", "114906.391000", "114906.394000", "114906.397000", "114906.400000", "114906.403000", "114906.406000", "114906.409000", "114906.411000", "114906.414000", "114906.417000", "114906.420000", "114906.423000", "114906.426000", "114906.436000", "114906.439000", "114906.442000", "114906.445000", "114906.448000", "114906.451000", "114906.454000", "114906.457000", "114906.460000", "114906.463000", "114906.466000", "114946.382000", "114946.385000", "114946.388000", "114946.391000", "114946.394000", "114946.397000", "114946.400000", "114946.403000", "114946.406000", "114946.409000", "114946.412000", "114946.414000", "114946.417000", "114946.420000", "114946.423000", "114946.426000", "114946.429000", "114946.439000", "114946.442000", "114946.445000", "114946.448000", "114946.450000", "114946.453000", "114946.456000", "114946.459000", "114946.462000", "114946.465000", "115026.382000", "115026.385000", "115026.388000", "115026.391000", "115026.394000", "115026.397000", "115026.400000", "115026.403000", "115026.406000", "115026.409000", "115026.421000", "115026.424000", "115026.428000", "115026.431000", "115026.439000", "115026.442000", "115026.445000", "115026.448000", "115026.451000", "115026.454000", "115026.457000", "115026.460000", "115026.463000", "115026.466000", "115026.469000", "115026.471000", "115026.474000", "115106.383000", "115106.386000", "115106.389000", "115106.392000", "115106.395000", "115106.398000", "115106.401000", "115106.404000", "115106.407000", "115106.410000", "115106.413000", "115106.417000", "115106.420000", "115106.423000", "115106.426000", "115106.429000", "115106.432000", "115106.436000", "115106.439000", "115106.442000", "115106.444000", "115106.448000", "115106.450000", "115106.453000", "115106.456000", "115106.459000", "115146.382000", "115146.385000", "115146.388000", "115146.391000", "115146.394000", "115146.397000", "115146.400000", "115146.403000", "115146.406000", "115146.409000", "115146.411000", "115146.414000", "115146.417000", "115146.420000", "115146.423000", "115146.426000", "115146.429000", "115146.432000", "115146.435000", "115146.438000", "115146.441000", "115146.444000", "115146.447000", "115146.449000", "115146.452000", "115146.455000", "115146.458000", "115226.382000", "115226.385000", "115226.388000", "115226.391000", "115226.394000", "115226.397000", "115226.400000", "115226.403000", "115226.406000", "115226.409000", "115226.411000", "115226.414000", "115226.417000", "115226.420000", "115226.423000", "115226.426000", "115226.429000", "115226.432000", "115226.435000", "115226.438000", "115226.441000", "115226.444000", "115226.447000", "115226.449000", "115226.452000", "115226.455000", "115226.458000", "115306.383000", "115306.386000", "115306.389000", "115306.392000", "115306.395000", "115306.398000", "115306.401000", "115306.404000", "115306.407000", "115306.410000", "115306.413000", "115306.415000", "115306.418000", "115306.421000", "115306.424000", "115306.427000", "115306.430000", "115306.433000", "115306.436000", "115306.439000", "115306.442000", "115306.445000", "115306.448000", "115306.451000", "115306.454000", "115306.456000", "115306.459000", "115346.382000", "115346.385000", "115346.388000", "115346.391000", "115346.394000", "115346.397000", "115346.400000", "115346.403000", "115346.406000", "115346.409000", "115346.412000", "115346.415000", "115346.425000", "115346.428000", "115346.431000", "115346.434000", "115346.437000", "115346.440000", "115346.443000", "115346.446000", "115346.449000", "115346.452000", "115346.455000", "115346.458000", "115346.461000", "115346.464000", "115346.466000", "115426.382000", "115426.385000", "115426.388000", "115426.391000", "115426.394000", "115426.397000", "115426.400000", "115426.403000", "115426.406000", "115426.409000", "115426.412000", "115426.415000", "115426.418000", "115426.421000", "115426.423000", "115426.426000", "115426.429000", "115426.432000", "115426.435000", "115426.438000", "115426.441000", "115426.444000", "115426.447000", "115426.450000", "115426.453000", "115426.456000", "115426.459000", "115506.383000", "115506.386000", "115506.389000", "115506.392000", "115506.395000", "115506.398000", "115506.401000", "115506.404000", "115506.407000", "115506.410000", "115506.413000", "115506.416000", "115506.419000", "115506.422000", "115506.425000", "115506.428000", "115506.431000", "115506.433000", "115506.436000", "115506.439000", "115506.442000", "115506.445000", "115506.448000", "115506.451000", "115506.454000", "115506.457000", "115506.460000", "115546.383000", "115546.386000", "115546.389000", "115546.392000", "115546.395000", "115546.398000", "115546.402000", "115546.404000", "115546.407000", "115546.410000", "115546.413000", "115546.416000", "115546.419000", "115546.422000", "115546.425000", "115546.428000", "115546.431000", "115546.434000", "115546.437000", "115546.440000", "115546.443000", "115546.446000", "115546.448000", "115546.452000", "115546.455000", "115546.458000", "115626.382000", "115626.385000", "115626.388000", "115626.391000", "115626.394000", "115626.397000", "115626.400000", "115626.403000", "115626.406000", "115626.417000", "115626.420000", "115626.423000", "115626.426000", "115626.429000", "115626.432000", "115626.435000", "115626.437000", "115626.440000", "115626.443000", "115626.446000", "115626.449000", "115626.452000", "115626.455000", "115626.458000", "115626.461000", "115626.464000", "115626.467000", "115706.382000", "115706.385000", "115706.388000", "115706.391000", "115706.394000", "115706.397000", "115706.400000", "115706.403000", "115706.406000", "115706.409000", "115706.412000", "115706.415000", "115706.418000", "115706.421000", "115706.424000", "115706.427000", "115706.430000", "115706.433000", "115706.436000", "115706.439000", "115706.442000", "115706.444000", "115706.448000", "115706.450000", "115706.453000", "115706.456000", "115706.459000", "115719.914000", "115719.918000", "115719.921000", "115719.924000", "115719.926000", "115719.929000", "115719.932000", "115719.935000", "115719.938000"],
