{
  "AcquisitionMatrixPE": 104,
  "AcquisitionNumber": 1,
  "AcquisitionTime": "11:06:26.265000",
  "BandwidthPerPixelPhaseEncode": 17.17,
  "BaseResolution": 104,
  "BodyPartExamined": "BRAIN",
  "CoilString": "HC1-7;NC1_2",
  "ConsistencyInfo": "N4_VE11C_LATEST_20160120",
  "ConversionSoftware": "dcm2niix",
  "ConversionSoftwareVersion": "v1.0.20190902",
  "DerivedVendorReportedEchoSpacing": 0.000560011,
  "DeviceSerialNumber": "167006",
  "DwellTime": 2.1e-06,
  "EchoTime": 0.037,
  "EchoTrainLength": 104,
  "EffectiveEchoSpacing": 0.000560011,
  "FlipAngle": 52,
  "ImageComments": "Unaliased_MB4_PE3_LB",
  "ImageOrientationPatientDICOM": [0.999658, 0.0232534, 0.0119256, -0.0143078, 0.868869, -0.494836],
  "ImageType": [
    "ORIGINAL",
    "PRIMARY",
    "M",
    "MB",
    "ND",
    "MOSAIC"
],
  "ImagingFrequency": 123.259,
  "InPlanePhaseEncodingDirectionDICOM": "COL",
  "InstitutionAddress": "Chemin_Queen-Mary_4565_Montreal_District_CA_H3W_1W5",
  "InstitutionName": "IUGM",
  "InstitutionalDepartmentName": "Department",
  "MRAcquisitionType": "2D",
  "MagneticFieldStrength": 3,
  "Manufacturer": "Siemens",
  "ManufacturersModelName": "Prisma_fit",
  "Modality": "MR",
  "MultibandAccelerationFactor": 4,
  "PartialFourier": 1,
  "PatientPosition": "HFS",
  "PercentPhaseFOV": 100,
  "PhaseEncodingDirection": "j",
  "PhaseEncodingSteps": 104,
  "PhaseResolution": 1,
  "PixelBandwidth": 2290,
  "ProcedureStepDescription": "games_shinobi",
  "ProtocolName": "func_task-shinobi_run-2",
  "PulseSequenceDetails": "%CustomerSeq%_cmrr_mbep2d_bold",
  "ReceiveCoilActiveElements": "HC1-7;NC1,2",
  "ReceiveCoilName": "HeadNeck_64",
  "ReconMatrixPE": 104,
  "RepetitionTime": 1.49,
  "SAR": 0.0350536,
  "ScanOptions": "FS",
  "ScanningSequence": "EP",
  "SequenceName": "epfid2d1_104",
  "SequenceVariant": "SK_SS",
  "SeriesDescription": "func_task-shinobi_run-2",
  "SeriesNumber": 11,
  "ShimSetting": [616, -7204, -8878, 371, -30, -161, 13, -16],
  "SliceThickness": 2,
  "SliceTiming": [0, 0.7825, 0.0975, 0.8825, 0.195, 0.98, 0.2925, 1.0775, 0.3925, 1.175, 0.49, 1.2725, 0.5875, 1.3725, 0.685, 0, 0.7825, 0.0975, 0.8825, 0.195, 0.98, 0.2925, 1.0775, 0.3925, 1.175, 0.49, 1.2725, 0.5875, 1.3725, 0.685, 0, 0.7825, 0.0975, 0.8825, 0.195, 0.98, 0.2925, 1.0775, 0.3925, 1.175, 0.49, 1.2725, 0.5875, 1.3725, 0.685, 0, 0.7825, 0.0975, 0.8825, 0.195, 0.98, 0.2925, 1.0775, 0.3925, 1.175, 0.49, 1.2725, 0.5875, 1.3725, 0.685],
  "SoftwareVersions": "syngo_MR_E11",
  "SpacingBetweenSlices": 2,
  "StationName": "MRC35049",
  "TaskName": "shinobi",
  "TotalReadoutTime": 0.0576811,
  "TxRefAmp": 248.415,
  "WipMemBlock": "51aba551-d707-4587-9f55-f2167fd6d963||Sequence: R016 ve11c/master r/e634e98; Dec 19 2017 11:00:25 by eja",
  "dcmmeta_affine": [
    [-1.999316930770874, -0.028615640476346016, 0.043736718595027924, 107.65736389160156],
    [-0.04650676250457764, 1.7377372980117798, -0.9889925718307495, -49.37654495239258],
    [0.02385113388299942, 0.9896718859672546, 1.737809181213379, -98.89203643798828],
    [0.0, 0.0, 0.0, 1.0]
],
  "dcmmeta_reorient_transform": [
    [0.0, -1.0, 0.0, 103.0],
    [1.0, 0.0, 0.0, 0.0],
    [0.0, 0.0, 1.0, 0.0],
    [0.0, 0.0, 0.0, 1.0]
],
  "dcmmeta_shape": [104, 104, 60, 483],
  "dcmmeta_slice_dim": 2,
  "dcmmeta_version": 0.6,
  "global": {
    "const": {
      "AcquisitionMatrix": [104, 0, 0, 104],
      "AngioFlag": "N",
      "BitsAllocated": 16,
      "BitsStored": 16,
      "BodyPartExamined": "BRAIN",
      "Columns": 832,
      "EchoNumbers": 1,
      "EchoTime": 37.0,
      "EchoTrainLength": 104,
      "FlipAngle": 52.0,
      "HighBit": 15,
      "ImageOrientationPatient": [0.99965847224401, 0.02325338086241, 0.01192556704054, -0.0143078204069, 0.86886862282138, -0.4948359349842],
      "ImagePositionPatient": [-822.04522564295, -779.07521134958, 354.60291737057],
      "ImageType": [
        "ORIGINAL",
        "PRIMARY",
        "M",
        "MB",
        "ND",
        "MOSAIC"
],
      "ImagedNucleus": "1H",
      "ImagingFrequency": 123.259372,
      "InPlanePhaseEncodingDirection": "COL",
      "MRAcquisitionType": "2D",
      "MagneticFieldStrength": 3.0,
      "Manufacturer": "SIEMENS",
      "ManufacturerModelName": "Prisma_fit",
      "Modality": "MR",
      "NumberOfAverages": 1.0,
      "NumberOfPhaseEncodingSteps": 104,
      "PercentPhaseFieldOfView": 100.0,
      "PercentSampling": 100.0,
      "PerformedProcedureStepStartTime": "104408.677000",
      "PhotometricInterpretation": "MONOCHROME2",
      "PixelBandwidth": 2290.0,
      "PixelRepresentation": 0,
      "PixelSpacing": [2.0, 2.0],
      "ProtocolName": "func_task-shinobi_run-2",
      "RepetitionTime": 1490.0,
      "Rows": 832,
      "SAR": 0.03505359856737,
      "SamplesPerPixel": 1,
      "ScanOptions": "FS",
      "ScanningSequence": "EP",
      "SequenceName": "epfid2d1_104",
      "SequenceVariant": [
        "SK",
        "SS"
],
      "SeriesDescription": "func_task-shinobi_run-2",
      "SeriesNumber": 11,
      "SeriesTime": "110754.107000",
      "SliceLocation": -59.156932686781,
      "SliceThickness": 2.0,
      "SmallestImagePixelValue": 0,
      "SoftwareVersions": "syngo MR E11",
      "SpacingBetweenSlices": 1.999999973941,
      "SpecificCharacterSet": "ISO_IR 100",
      "StudyID": "1",
      "StudyTime": "104408.585000",
      "TransmitCoilName": "Body",
      "VariableFlipAngleFlag": "N",
      "WindowCenterWidthExplanation": "Algo1",
      "dBdt": 0.0},
    "slices": {}
  },
  "time": {
    "samples": {
      "AcquisitionNumber": [1, 2, 3, 4, 5, 6, 7, 8, 9, 10, 11, 12, 13, 14, 15, 16, 17, 18, 19, 20, 21, 22, 23, 24, 25, 26, 27, 28, 29, 30, 31, 32, 33, 34, 35, 36, 37, 38, 39, 40, 41, 42, 43, 44, 45, 46, 47, 48, 49, 50, 51, 52, 53, 54, 55, 56, 57, 58, 59, 60, 61, 62, 63, 64, 65, 66, 67, 68, 69, 70, 71, 72, 73, 74, 75, 76, 77, 78, 79, 80, 81, 82, 83, 84, 85, 86, 87, 88, 89, 90, 91, 92, 93, 94, 95, 96, 97, 98, 99, 100, 101, 102, 103, 104, 105, 106, 107, 108, 109, 110, 111, 112, 113, 114, 115, 116, 117, 118, 119, 120, 121, 122, 123, 124, 125, 126, 127, 128, 129, 130, 131, 132, 133, 134, 135, 136, 137, 138, 139, 140, 141, 142, 143, 144, 145, 146, 147, 148, 149, 150, 151, 152, 153, 154, 155, 156, 157, 158, 159, 160, 161, 162, 163, 164, 165, 166, 167, 168, 169, 170, 171, 172, 173, 174, 175, 176, 177, 178, 179, 180, 181, 182, 183, 184, 185, 186, 187, 188, 189, 190, 191, 192, 193, 194, 195, 196, 197, 198, 199, 200, 201, 202, 203, 204, 205, 206, 207, 208, 209, 210, 211, 212, 213, 214, 215, 216, 217, 218, 219, 220, 221, 222, 223, 224, 225, 226, 227, 228, 229, 230, 231, 232, 233, 234, 235, 236, 237, 238, 239, 240, 241, 242, 243, 244, 245, 246, 247, 248, 249, 250, 251, 252, 253, 254, 255, 256, 257, 258, 259, 260, 261, 262, 263, 264, 265, 266, 267, 268, 269, 270, 271, 272, 273, 274, 275, 276, 277, 278, 279, 280, 281, 282, 283, 284, 285, 286, 287, 288, 289, 290, 291, 292, 293, 294, 295, 296, 297, 298, 299, 300, 301, 302, 303, 304, 305, 306, 307, 308, 309, 310, 311, 312, 313, 314, 315, 316, 317, 318, 319, 320, 321, 322, 323, 324, 325, 326, 327, 328, 329, 330, 331, 332, 333, 334, 335, 336, 337, 338, 339, 340, 341, 342, 343, 344, 345, 346, 347, 348, 349, 350, 351, 352, 353, 354, 355, 356, 357, 358, 359, 360, 361, 362, 363, 364, 365, 366, 367, 368, 369, 370, 371, 372, 373, 374, 375, 376, 377, 378, 379, 380, 381, 382, 383, 384, 385, 386, 387, 388, 389, 390, 391, 392, 393, 394, 395, 396, 397, 398, 399, 400, 401, 402, 403, 404, 405, 406, 407, 408, 409, 410, 411, 412, 413, 414, 415, 416, 417, 418, 419, 420, 421, 422, 423, 424, 425, 426, 427, 428, 429, 430, 431, 432, 433, 434, 435, 436, 437, 438, 439, 440, 441, 442, 443, 444, 445, 446, 447, 448, 449, 450, 451, 452, 453, 454, 455, 456, 457, 458, 459, 460, 461, 462, 463, 464, 465, 466, 467, 468, 469, 470, 471, 472, 473, 474, 475, 476, 477, 478, 479, 480, 481, 482, 483],
      "AcquisitionTime": ["110626.265000", "110627.755000", "110629.245000", "110630.735000", "110632.225000", "110633.715000", "110635.205000", "110636.695000", "110638.185000", "110639.675000", "110641.165000", "110642.655000", "110644.145000", "110645.635000", "110647.125000", "110648.615000", "110650.105000", "110651.595000", "110653.085000", "110654.575000", "110656.065000", "110657.555000", "110659.045000", "110700.535000", "110702.025000", "110703.515000", "110705.005000", "110706.495000", "110707.985000", "110709.475000", "110710.965000", "110712.455000", "110713.945000", "110715.435000", "110716.925000", "110718.415000", "110719.905000", "110721.395000", "110722.885000", "110724.375000", "110725.865000", "110727.355000", "110728.845000", "110730.335000", "110731.825000", "110733.315000", "110734.805000", "110736.295000", "110737.785000", "110739.275000", "110740.765000", "110742.255000", "110743.745000", "110745.235000", "110746.725000", "110748.215000", "110749.705000", "110751.195000", "110752.685000", "110754.175000", "110755.665000", "110757.155000", "110758.645000", "110800.135000", "110801.625000", "110803.115000", "110804.605000", "110806.095000", "110807.585000", "110809.075000", "110810.565000", "110812.055000", "110813.545000", "110815.035000", "110816.525000", "110818.015000", "110819.505000", "110820.995000", "110822.485000", "110823.975000", "110825.465000", "110826.955000", "110828.445000", "110829.935000", "110831.425000", "110832.915000", "110834.405000", "110835.895000", "110837.385000", "110838.875000", "110840.365000", "110841.855000", "110843.345000", "110844.835000", "110846.325000", "110847.815000", "110849.305000", "110850.795000", "110852.285000", "110853.775000", "110855.265000", "110856.755000", "110858.245000", "110859.735000", "110901.225000", "110902.715000", "110904.205000", "110905.695000", "110907.185000", "110908.675000", "110910.165000", "110911.655000", "110913.145000", "110914.635000", "110916.125000", "110917.615000", "110919.105000", "110920.595000", "110922.085000", "110923.575000", "110925.065000", "110926.555000", "110928.045000", "110929.535000", "110931.025000", "110932.515000", "110934.005000", "110935.495000", "110936.985000", "110938.475000", "110939.965000", "110941.455000", "110942.945000", "110944.435000", "110945.925000", "110947.415000", "110948.905000", "110950.395000", "110951.885000", "110953.375000", "110954.865000", "110956.355000", "110957.845000", "110959.335000", "111000.825000", "111002.315000", "111003.805000", "111005.295000", "111006.785000", "111008.275000", "111009.765000", "111011.255000", "111012.745000", "111014.235000", "111015.725000", "111017.215000", "111018.705000", "111020.195000", "111021.685000", "111023.175000", "111024.665000", "111026.155000", "111027.645000", "111029.135000", "111030.625000", "111032.115000", "111033.605000", "111035.095000", "111036.585000", "111038.075000", "111039.565000", "111041.055000", "111042.545000", "111044.035000", "111045.525000", "111047.015000", "111048.505000", "111049.995000", "111051.485000", "111052.975000", "111054.465000", "111055.955000", "111057.445000", "111058.935000", "111100.425000", "111101.915000", "111103.405000", "111104.895000", "111106.385000", "111107.875000", "111109.365000", "111110.855000", "111112.345000", "111113.835000", "111115.325000", "111116.815000", "111118.305000", "111119.795000", "111121.285000", "111122.775000", "111124.265000", "111125.755000", "111127.245000", "111128.735000", "111130.225000", "111131.715000", "111133.205000", "111134.695000", "111136.185000", "111137.675000", "111139.165000", "111140.655000", "111142.145000", "111143.635000", "111145.125000", "111146.615000", "111148.105000", "111149.595000", "111151.085000", "111152.575000", "111154.065000", "111155.555000", "111157.045000", "111158.535000", "111200.025000", "111201.515000", "111203.005000", "111204.495000", "111205.985000", "111207.475000", "111208.965000", "111210.455000", "111211.945000", "111213.435000", "111214.925000", "111216.415000", "111217.905000", "111219.395000", "111220.885000", "111222.375000", "111223.865000", "111225.355000", "111226.845000", "111228.335000", "111229.825000", "111231.315000", "111232.805000", "111234.295000", "111235.785000", "111237.275000", "111238.765000", "111240.255000", "111241.745000", "111243.235000", "111244.725000", "111246.215000", "111247.705000", "111249.195000", "111250.685000", "111252.175000", "111253.665000", "111255.155000", "111256.645000", "111258.135000", "111259.625000", "111301.115000", "111302.605000", "111304.095000", "111305.585000", "111307.075000", "111308.565000", "111310.055000", "111311.545000", "111313.035000", "111314.525000", "111316.015000", "111317.505000", "111318.995000", "111320.485000", "111321.975000", "111323.465000", "111324.955000", "111326.445000", "111327.935000", "111329.425000", "111330.915000", "111332.405000", "111333.895000", "111335.385000", "111336.875000", "111338.365000", "111339.855000", "111341.345000", "111342.835000", "111344.325000", "111345.815000", "111347.305000", "111348.795000", "111350.285000", "111351.775000", "111353.265000", "111354.755000", "111356.245000", "111357.735000", "111359.225000", "111400.715000", "111402.205000", "111403.695000", "111405.185000", "111406.675000", "111408.165000", "111409.655000", "111411.145000", "111412.635000", "111414.125000", "111415.615000", "111417.105000", "111418.595000", "111420.085000", "111421.575000", "111423.065000", "111424.555000", "111426.045000", "111427.535000", "111429.025000", "111430.515000", "111432.005000", "111433.495000", "111434.985000", "111436.475000", "111437.965000", "111439.455000", "111440.945000", "111442.435000", "111443.925000", "111445.415000", "111446.905000", "111448.395000", "111449.885000", "111451.375000", "111452.865000", "111454.355000", "111455.845000", "111457.335000", "111458.825000", "111500.315000", "111501.805000", "111503.295000", "111504.785000", "111506.275000", "111507.765000", "111509.255000", "111510.745000", "111512.235000", "111513.725000", "111515.215000", "111516.705000", "111518.195000", "111519.685000", "111521.175000", "111522.665000", "111524.155000", "111525.645000", "111527.135000", "111528.625000", "111530.115000", "111531.605000", "111533.095000", "111534.585000", "111536.075000", "111537.565000", "111539.055000", "111540.545000", "111542.035000", "111543.525000", "111545.015000", "111546.505000", "111547.995000", "111549.485000", "111550.975000", "111552.465000", "111553.955000", "111555.445000", "111556.935000", "111558.425000", "111559.915000", "111601.405000", "111602.895000", "111604.385000", "111605.875000", "111607.365000", "111608.855000", "111610.345000", "111611.835000", "111613.325000", "111614.815000", "111616.305000", "111617.795000", "111619.285000", "111620.775000", "111622.265000", "111623.755000", "111625.245000", "111626.735000", "111628.225000", "111629.715000", "111631.205000", "111632.695000", "111634.185000", "111635.675000", "111637.165000", "111638.655000", "111640.145000", "111641.635000", "111643.125000", "111644.615000", "111646.105000", "111647.595000", "111649.085000", "111650.575000", "111652.065000", "111653.555000", "111655.045000", "111656.535000", "111658.025000", "111659.515000", "111701.005000", "111702.495000", "111703.985000", "111705.475000", "111706.965000", "111708.455000", "111709.945000", "111711.435000", "111712.925000", "111714.415000", "111715.905000", "111717.395000", "111718.885000", "111720.375000", "111721.865000", "111723.355000", "111724.845000", "111726.335000", "111727.825000", "111729.315000", "111730.805000", "111732.295000", "111733.785000", "111735.275000", "111736.765000", "111738.255000", "111739.745000", "111741.235000", "111742.725000", "111744.215000", "111745.705000", "111747.195000", "111748.685000", "111750.175000", "111751.665000", "111753.155000", "111754.645000", "111756.135000", "111757.625000", "111759.115000", "111800.605000", "111802.095000", "111803.585000", "111805.075000", "111806.565000", "111808.055000", "111809.545000", "111811.035000", "111812.525000", "111814.015000", "111815.505000", "111816.995000", "111818.485000", "111819.975000", "111821.465000", "111822.955000", "111824.445000"],
      "ContentTime": ["110754.109000", "110754.113000", "110754.116000", "110754.119000", "110754.121000", "110754.124000", "110754.127000", "110754.130000", "110754.133000", "110754.136000", "110754.139000", "110754.142000", "110754.145000", "110754.148000", "110754.151000", "110754.154000", "110754.156000", "110754.159000", "110754.168000", "110754.171000", "110754.174000", "110754.177000", "110754.180000", "110754.183000", "110754.186000", "110754.189000", "110754.198000", "110754.200000", "110754.203000", "110754.206000", "110754.209000", "110754.212000", "110754.215000", "110754.218000", "110814.067000", "110814.070000", "110814.073000", "110814.076000", "110814.079000", "110814.082000", "110814.085000", "110814.087000", "110814.090000", "110814.093000", "110814.096000", "110814.099000", "110814.102000", "110814.105000", "110814.108000", "110814.110000", "110814.113000", "110814.116000", "110814.119000", "110814.124000", "110834.066000", "110834.069000", "110834.072000", "110834.075000", "110834.078000", "110834.080000", "110834.083000", "110834.086000", "110834.089000", "110834.092000", "110834.095000", "110834.098000", "110834.101000", "110834.104000", "110834.107000", "110834.109000", "110834.112000", "110834.115000", "110834.118000", "110834.121000", "110854.066000", "110854.069000", "110854.072000", "110854.075000", "110854.078000", "110854.081000", "110854.084000", "110854.086000", "110854.089000", "110854.094000", "110854.097000", "110854.100000", "110854.103000", "110854.106000", "110854.109000", "110854.112000", "110854.115000", "110854.117000", "110854.120000", "110854.123000", "110934.066000", "110934.069000", "110934.072000", "110934.075000", "110934.078000", "110934.081000", "110934.084000", "110934.087000", "110934.089000", "110934.092000", "110934.095000", "110934.098000", "110934.101000", "110934.104000", "110934.107000", "110934.110000", "110934.113000", "110934.115000", "110934.118000", "110934.121000", "110934.124000", "110934.127000", "110934.130000", "110934.133000", "110934.136000", "110934.139000", "110934.142000", "110934.144000", "110934.147000", "110934.150000", "110934.153000", "111014.067000", "111014.070000", "111014.073000", "111014.076000", "111014.079000", "111014.082000", "111014.085000", "111014.087000", "111014.090000", "111014.093000", "111014.096000", "111014.099000", "111014.102000", "111014.105000", "111014.108000", "111014.111000", "111014.113000", "111014.116000", "111014.119000", "111014.122000", "111014.125000", "111014.128000", "111014.131000", "111014.134000", "111014.136000", "111014.139000", "111014.142000", "111054.066000", "111054.069000", "111054.072000", "111054.085000", "111054.088000", "111054.091000", "111054.094000", "111054.096000", "111054.099000", "111054.102000", "111054.105000", "111054.108000", "111054.111000", "111054.114000", "111054.117000", "111054.120000", "111054.123000", "111054.125000", "111054.128000", "111054.131000", "111054.134000", "111054.137000", "111054.140000", "111054.143000", "111054.146000", "111054.148000", "111054.151000", "111134.066000", "111134.069000", "111134.072000", "111134.075000", "111134.078000", "111134.081000", "111134.084000", "111134.086000", "111134.089000", "111134.092000", "111134.095000", "111134.098000", "111134.101000", "111134.104000", "111134.107000", "111134.110000", "111134.113000", "111134.116000", "111134.118000", "111134.121000", "111134.124000", "111134.127000", "111134.130000", "111134.133000", "111134.136000", "111134.139000", "111134.142000", "111214.066000", "111214.069000", "111214.072000", "111214.075000", "111214.078000", "111214.081000", "111214.084000", "111214.100000", "111214.103000", "111214.106000", "111214.109000", "111214.112000", "111214.114000", "111214.117000", "111214.120000", "111214.123000", "111214.126000", "111214.129000", "111214.132000", "111214.135000", "111214.137000", "111214.140000", "111214.143000", "111214.146000", "111214.149000", "111214.152000", "111214.155000", "111254.067000", "111254.070000", "111254.073000", "111254.076000", "111254.079000", "111254.082000", "111254.085000", "111254.088000", "111254.091000", "111254.094000", "111254.097000", "111254.100000", "111254.103000", "111254.106000", "111254.109000", "111254.112000", "111254.115000", "111254.118000", "111254.121000", "111254.124000", "111254.127000", "111254.130000", "111254.133000", "111254.136000", "111254.138000", "111254.141000", "111254.144000", "111314.066000", "111314.069000", "111314.072000", "111314.075000", "111314.078000", "111314.081000", "111314.084000", "111314.087000", "111314.090000", "111314.093000", "111314.096000", "111314.099000", "111314.102000", "111354.066000", "111354.069000", "111354.072000", "111354.075000", "111354.078000", "111354.081000", "111354.084000", "111354.086000", "111354.089000", "111354.092000", "111354.095000", "111354.098000", "111354.101000", "111354.104000", "111354.107000", "111354.110000", "111354.113000", "111354.116000", "111354.118000", "111354.121000", "111354.124000", "111354.127000", "111354.130000", "111354.133000", "111354.136000", "111354.139000", "111354.142000", "111434.066000", "111434.069000", "111434.072000", "111434.075000", "111434.078000", "111434.081000", "111434.084000", "111434.086000", "111434.089000", "111434.092000", "111434.095000", "111434.098000", "111434.101000", "111434.104000", "111434.107000", "111434.110000", "111434.112000", "111434.115000", "111434.118000", "111434.121000", "111434.124000", "111434.127000", "111434.130000", "111434.133000", "111434.136000", "111434.139000", "111434.142000", "111514.067000", "111514.070000", "111514.073000", "111514.077000", "111514.080000", "111514.084000", "111514.087000", "111514.090000", "111514.093000", "111514.096000", "111514.099000", "111514.102000", "111514.105000", "111514.108000", "111514.111000", "111514.114000", "111514.116000", "111514.119000", "111514.122000", "111514.125000", "111514.128000", "111514.131000", "111514.134000", "111514.137000", "111514.140000", "111514.143000", "111554.066000", "111554.069000", "111554.072000", "111554.075000", "111554.078000", "111554.081000", "111554.084000", "111554.087000", "111554.090000", "111554.092000", "111554.095000", "111554.098000", "111554.101000", "111554.104000", "111554.107000", "111554.110000", "111554.113000", "111554.116000", "111554.119000", "111554.122000", "111554.124000", "111554.127000", "111554.130000", "111554.133000", "111554.136000", "111554.139000", "111554.142000", "111634.066000", "111634.069000", "111634.072000", "111634.075000", "111634.078000", "111634.081000", "111634.084000", "111634.087000", "111634.090000", "111634.092000", "111634.095000", "111634.098000", "111634.101000", "111634.104000", "111634.107000", "111634.110000", "111634.113000", "111634.116000", "111634.119000", "111634.121000", "111634.124000", "111634.127000", "111634.144000", "111634.147000", "111634.149000", "111634.152000", "111634.155000", "111714.067000", "111714.070000", "111714.073000", "111714.076000", "111714.079000", "111714.082000", "111714.085000", "111714.088000", "111714.091000", "111714.093000", "111714.096000", "111714.099000", "111714.102000", "111714.105000", "111714.108000", "111714.111000", "111714.114000", "111714.117000", "111714.120000", "111714.122000", "111714.125000", "111714.128000", "111714.131000", "111714.134000", "111714.137000", "111714.140000", "111714.143000", "111754.066000", "111754.069000", "111754.072000", "111754.075000", "111754.078000", "111754.081000", "111754.084000", "111754.087000", "111754.090000", "111754.093000", "111754.095000", "111754.098000", "111754.101000", "111754.104000", "111754.107000", "111754.110000", "111754.113000", "111754.116000", "111754.119000", "111754.122000", "111754.125000", "111754.127000", "111754.130000", "111754.133000", "111754.136000", "111754.139000", "111754.142000", "111827.698000", "111827.701000", "111827.704000", "111827.717000", "111827.720000", "111827.723000", "111827.726000", "111827.729000", "111827.732000", "111827.735000", "111827.738000", "111827.741000", "111827.744000", "111827.747000", "111827.750000", "111827.753000", "111827.756000", "111827.759000", "111827.762000", "111827.765000", "111827.768000", "111827.771000"],
