{
  "AcquisitionMatrixPE": 104,
  "AcquisitionNumber": 1,
  "AcquisitionTime": "11:31:31.650000",
  "BandwidthPerPixelPhaseEncode": 17.17,
  "BaseResolution": 104,
  "BodyPartExamined": "BRAIN",
  "CoilString": "HC1-7;NC1_2",
  "ConsistencyInfo": "N4_VE11C_LATEST_20160120",
  "ConversionSoftware": "dcm2niix",
  "ConversionSoftwareVersion": "v1.0.20190902",
  "DerivedVendorReportedEchoSpacing": 0.000560011,
  "DeviceSerialNumber": "167006",
  "DwellTime": 2.1e-06,
  "EchoTime": 0.037,
  "EchoTrainLength": 104,
  "EffectiveEchoSpacing": 0.000560011,
  "FlipAngle": 52,
  "ImageComments": "Unaliased_MB4_PE3_LB",
  "ImageOrientationPatientDICOM": [0.999658, 0.0232534, 0.0119256, -0.0143078, 0.868869, -0.494836],
  "ImageType": [
    "ORIGINAL",
    "PRIMARY",
    "M",
    "MB",
    "ND",
    "MOSAIC"
],
  "ImagingFrequency": 123.259,
  "InPlanePhaseEncodingDirectionDICOM": "COL",
  "InstitutionAddress": "Chemin_Queen-Mary_4565_Montreal_District_CA_H3W_1W5",
  "InstitutionName": "IUGM",
  "InstitutionalDepartmentName": "Department",
  "MRAcquisitionType": "2D",
  "MagneticFieldStrength": 3,
  "Manufacturer": "Siemens",
  "ManufacturersModelName": "Prisma_fit",
  "Modality": "MR",
  "MultibandAccelerationFactor": 4,
  "PartialFourier": 1,
  "PatientPosition": "HFS",
  "PercentPhaseFOV": 100,
  "PhaseEncodingDirection": "j",
  "PhaseEncodingSteps": 104,
  "PhaseResolution": 1,
  "PixelBandwidth": 2290,
  "ProcedureStepDescription": "games_shinobi",
  "ProtocolName": "func_task-shinobi_run-4",
  "PulseSequenceDetails": "%CustomerSeq%_cmrr_mbep2d_bold",
  "ReceiveCoilActiveElements": "HC1-7;NC1,2",
  "ReceiveCoilName": "HeadNeck_64",
  "ReconMatrixPE": 104,
  "RepetitionTime": 1.49,
  "SAR": 0.0350536,
  "ScanOptions": "FS",
  "ScanningSequence": "EP",
  "SequenceName": "epfid2d1_104",
  "SequenceVariant": "SK_SS",
  "SeriesDescription": "func_task-shinobi_run-4",
  "SeriesNumber": 15,
  "ShimSetting": [616, -7204, -8878, 371, -30, -161, 13, -16],
  "SliceThickness": 2,
  "SliceTiming": [0, 0.7825, 0.0975, 0.88, 0.195, 0.98, 0.2925, 1.0775, 0.39, 1.175, 0.49, 1.2725, 0.5875, 1.37, 0.685, 0, 0.7825, 0.0975, 0.88, 0.195, 0.98, 0.2925, 1.0775, 0.39, 1.175, 0.49, 1.2725, 0.5875, 1.37, 0.685, 0, 0.7825, 0.0975, 0.88, 0.195, 0.98, 0.2925, 1.0775, 0.39, 1.175, 0.49, 1.2725, 0.5875, 1.37, 0.685, 0, 0.7825, 0.0975, 0.88, 0.195, 0.98, 0.2925, 1.0775, 0.39, 1.175, 0.49, 1.2725, 0.5875, 1.37, 0.685],
  "SoftwareVersions": "syngo_MR_E11",
  "SpacingBetweenSlices": 2,
  "StationName": "MRC35049",
  "TaskName": "shinobi",
  "TotalReadoutTime": 0.0576811,
  "TxRefAmp": 248.415,
  "WipMemBlock": "b8be6592-6261-4aa6-b976-f342741dea48||Sequence: R016 ve11c/master r/e634e98; Dec 19 2017 11:00:25 by eja",
  "dcmmeta_affine": [
    [-1.999316930770874, -0.028615640476346016, 0.043736718595027924, 107.65736389160156],
    [-0.04650676250457764, 1.7377372980117798, -0.9889925718307495, -49.37654495239258],
    [0.02385113388299942, 0.9896718859672546, 1.737809181213379, -98.89203643798828],
    [0.0, 0.0, 0.0, 1.0]
],
  "dcmmeta_reorient_transform": [
    [0.0, -1.0, 0.0, 103.0],
    [1.0, 0.0, 0.0, 0.0],
    [0.0, 0.0, 1.0, 0.0],
    [0.0, 0.0, 0.0, 1.0]
],
  "dcmmeta_shape": [104, 104, 60, 490],
  "dcmmeta_slice_dim": 2,
  "dcmmeta_version": 0.6,
  "global": {
    "const": {
      "AcquisitionMatrix": [104, 0, 0, 104],
      "AngioFlag": "N",
      "BitsAllocated": 16,
      "BitsStored": 16,
      "BodyPartExamined": "BRAIN",
      "Columns": 832,
      "EchoNumbers": 1,
      "EchoTime": 37.0,
      "EchoTrainLength": 104,
      "FlipAngle": 52.0,
      "HighBit": 15,
      "ImageOrientationPatient": [0.99965847224401, 0.02325338086241, 0.01192556704054, -0.0143078204069, 0.86886862282138, -0.4948359349842],
      "ImagePositionPatient": [-822.04522564295, -779.07521134958, 354.60291737057],
      "ImageType": [
        "ORIGINAL",
        "PRIMARY",
        "M",
        "MB",
        "ND",
        "MOSAIC"
],
      "ImagedNucleus": "1H",
      "ImagingFrequency": 123.259377,
      "InPlanePhaseEncodingDirection": "COL",
      "MRAcquisitionType": "2D",
      "MagneticFieldStrength": 3.0,
      "Manufacturer": "SIEMENS",
      "ManufacturerModelName": "Prisma_fit",
      "Modality": "MR",
      "NumberOfAverages": 1.0,
      "NumberOfPhaseEncodingSteps": 104,
      "PercentPhaseFieldOfView": 100.0,
      "PercentSampling": 100.0,
      "PerformedProcedureStepStartTime": "104408.677000",
      "PhotometricInterpretation": "MONOCHROME2",
      "PixelBandwidth": 2290.0,
      "PixelRepresentation": 0,
      "PixelSpacing": [2.0, 2.0],
      "ProtocolName": "func_task-shinobi_run-4",
      "RepetitionTime": 1490.0,
      "Rows": 832,
      "SAR": 0.03505359856737,
      "SamplesPerPixel": 1,
      "ScanOptions": "FS",
      "ScanningSequence": "EP",
      "SequenceName": "epfid2d1_104",
      "SequenceVariant": [
        "SK",
        "SS"
],
      "SeriesDescription": "func_task-shinobi_run-4",
      "SeriesNumber": 15,
      "SeriesTime": "113305.337000",
      "SliceLocation": -59.156932686781,
      "SliceThickness": 2.0,
      "SmallestImagePixelValue": 0,
      "SoftwareVersions": "syngo MR E11",
      "SpacingBetweenSlices": 1.999999973941,
      "SpecificCharacterSet": "ISO_IR 100",
      "StudyID": "1",
      "StudyTime": "104408.585000",
      "TransmitCoilName": "Body",
      "VariableFlipAngleFlag": "N",
      "WindowCenterWidthExplanation": "Algo1",
      "dBdt": 0.0},
    "slices": {}
  },
  "time": {
    "samples": {
      "AcquisitionNumber": [1, 2, 3, 4, 5, 6, 7, 8, 9, 10, 11, 12, 13, 14, 15, 16, 17, 18, 19, 20, 21, 22, 23, 24, 25, 26, 27, 28, 29, 30, 31, 32, 33, 34, 35, 36, 37, 38, 39, 40, 41, 42, 43, 44, 45, 46, 47, 48, 49, 50, 51, 52, 53, 54, 55, 56, 57, 58, 59, 60, 61, 62, 63, 64, 65, 66, 67, 68, 69, 70, 71, 72, 73, 74, 75, 76, 77, 78, 79, 80, 81, 82, 83, 84, 85, 86, 87, 88, 89, 90, 91, 92, 93, 94, 95, 96, 97, 98, 99, 100, 101, 102, 103, 104, 105, 106, 107, 108, 109, 110, 111, 112, 113, 114, 115, 116, 117, 118, 119, 120, 121, 122, 123, 124, 125, 126, 127, 128, 129, 130, 131, 132, 133, 134, 135, 136, 137, 138, 139, 140, 141, 142, 143, 144, 145, 146, 147, 148, 149, 150, 151, 152, 153, 154, 155, 156, 157, 158, 159, 160, 161, 162, 163, 164, 165, 166, 167, 168, 169, 170, 171, 172, 173, 174, 175, 176, 177, 178, 179, 180, 181, 182, 183, 184, 185, 186, 187, 188, 189, 190, 191, 192, 193, 194, 195, 196, 197, 198, 199, 200, 201, 202, 203, 204, 205, 206, 207, 208, 209, 210, 211, 212, 213, 214, 215, 216, 217, 218, 219, 220, 221, 222, 223, 224, 225, 226, 227, 228, 229, 230, 231, 232, 233, 234, 235, 236, 237, 238, 239, 240, 241, 242, 243, 244, 245, 246, 247, 248, 249, 250, 251, 252, 253, 254, 255, 256, 257, 258, 259, 260, 261, 262, 263, 264, 265, 266, 267, 268, 269, 270, 271, 272, 273, 274, 275, 276, 277, 278, 279, 280, 281, 282, 283, 284, 285, 286, 287, 288, 289, 290, 291, 292, 293, 294, 295, 296, 297, 298, 299, 300, 301, 302, 303, 304, 305, 306, 307, 308, 309, 310, 311, 312, 313, 314, 315, 316, 317, 318, 319, 320, 321, 322, 323, 324, 325, 326, 327, 328, 329, 330, 331, 332, 333, 334, 335, 336, 337, 338, 339, 340, 341, 342, 343, 344, 345, 346, 347, 348, 349, 350, 351, 352, 353, 354, 355, 356, 357, 358, 359, 360, 361, 362, 363, 364, 365, 366, 367, 368, 369, 370, 371, 372, 373, 374, 375, 376, 377, 378, 379, 380, 381, 382, 383, 384, 385, 386, 387, 388, 389, 390, 391, 392, 393, 394, 395, 396, 397, 398, 399, 400, 401, 402, 403, 404, 405, 406, 407, 408, 409, 410, 411, 412, 413, 414, 415, 416, 417, 418, 419, 420, 421, 422, 423, 424, 425, 426, 427, 428, 429, 430, 431, 432, 433, 434, 435, 436, 437, 438, 439, 440, 441, 442, 443, 444, 445, 446, 447, 448, 449, 450, 451, 452, 453, 454, 455, 456, 457, 458, 459, 460, 461, 462, 463, 464, 465, 466, 467, 468, 469, 470, 471, 472, 473, 474, 475, 476, 477, 478, 479, 480, 481, 482, 483, 484, 485, 486, 487, 488, 489, 490],
      "AcquisitionTime": ["113131.650000", "113133.140000", "113134.630000", "113136.120000", "113137.610000", "113139.100000", "113140.590000", "113142.080000", "113143.570000", "113145.060000", "113146.550000", "113148.040000", "113149.530000", "113151.020000", "113152.510000", "113154.000000", "113155.490000", "113156.980000", "113158.470000", "113159.960000", "113201.450000", "113202.940000", "113204.430000", "113205.920000", "113207.410000", "113208.900000", "113210.390000", "113211.880000", "113213.370000", "113214.860000", "113216.350000", "113217.840000", "113219.330000", "113220.820000", "113222.310000", "113223.800000", "113225.290000", "113226.780000", "113228.270000", "113229.760000", "113231.250000", "113232.740000", "113234.230000", "113235.720000", "113237.210000", "113238.700000", "113240.190000", "113241.680000", "113243.170000", "113244.660000", "113246.150000", "113247.640000", "113249.130000", "113250.620000", "113252.110000", "113253.600000", "113255.090000", "113256.580000", "113258.070000", "113259.560000", "113301.050000", "113302.540000", "113304.030000", "113305.520000", "113307.010000", "113308.500000", "113309.990000", "113311.480000", "113312.970000", "113314.460000", "113315.950000", "113317.440000", "113318.930000", "113320.420000", "113321.910000", "113323.400000", "113324.890000", "113326.380000", "113327.870000", "113329.360000", "113330.850000", "113332.340000", "113333.830000", "113335.320000", "113336.810000", "113338.300000", "113339.790000", "113341.280000", "113342.770000", "113344.260000", "113345.750000", "113347.240000", "113348.730000", "113350.220000", "113351.710000", "113353.200000", "113354.690000", "113356.180000", "113357.670000", "113359.160000", "113400.650000", "113402.140000", "113403.630000", "113405.120000", "113406.610000", "113408.100000", "113409.590000", "113411.080000", "113412.570000", "113414.060000", "113415.550000", "113417.040000", "113418.530000", "113420.020000", "113421.510000", "113423.000000", "113424.490000", "113425.980000", "113427.470000", "113428.960000", "113430.450000", "113431.940000", "113433.430000", "113434.920000", "113436.410000", "113437.900000", "113439.390000", "113440.880000", "113442.370000", "113443.860000", "113445.350000", "113446.840000", "113448.330000", "113449.820000", "113451.310000", "113452.800000", "113454.290000", "113455.780000", "113457.270000", "113458.760000", "113500.250000", "113501.740000", "113503.230000", "113504.720000", "113506.210000", "113507.700000", "113509.190000", "113510.680000", "113512.170000", "113513.660000", "113515.150000", "113516.640000", "113518.130000", "113519.620000", "113521.110000", "113522.600000", "113524.090000", "113525.580000", "113527.070000", "113528.560000", "113530.050000", "113531.540000", "113533.030000", "113534.520000", "113536.010000", "113537.500000", "113538.990000", "113540.480000", "113541.970000", "113543.460000", "113544.950000", "113546.440000", "113547.930000", "113549.420000", "113550.910000", "113552.400000", "113553.890000", "113555.380000", "113556.870000", "113558.360000", "113559.850000", "113601.340000", "113602.830000", "113604.320000", "113605.810000", "113607.300000", "113608.790000", "113610.280000", "113611.770000", "113613.260000", "113614.750000", "113616.240000", "113617.730000", "113619.220000", "113620.710000", "113622.200000", "113623.690000", "113625.180000", "113626.670000", "113628.160000", "113629.650000", "113631.140000", "113632.630000", "113634.120000", "113635.610000", "113637.100000", "113638.590000", "113640.080000", "113641.570000", "113643.060000", "113644.550000", "113646.040000", "113647.530000", "113649.020000", "113650.510000", "113652.000000", "113653.490000", "113654.980000", "113656.470000", "113657.960000", "113659.450000", "113700.940000", "113702.430000", "113703.920000", "113705.410000", "113706.900000", "113708.390000", "113709.880000", "113711.370000", "113712.860000", "113714.350000", "113715.840000", "113717.330000", "113718.820000", "113720.310000", "113721.800000", "113723.290000", "113724.780000", "113726.270000", "113727.760000", "113729.250000", "113730.740000", "113732.230000", "113733.720000", "113735.210000", "113736.700000", "113738.190000", "113739.680000", "113741.170000", "113742.660000", "113744.150000", "113745.640000", "113747.130000", "113748.620000", "113750.110000", "113751.600000", "113753.090000", "113754.580000", "113756.070000", "113757.560000", "113759.050000", "113800.540000", "113802.030000", "113803.520000", "113805.010000", "113806.500000", "113807.990000", "113809.480000", "113810.970000", "113812.460000", "113813.950000", "113815.440000", "113816.930000", "113818.420000", "113819.910000", "113821.400000", "113822.890000", "113824.380000", "113825.870000", "113827.360000", "113828.850000", "113830.340000", "113831.830000", "113833.320000", "113834.810000", "113836.300000", "113837.790000", "113839.280000", "113840.770000", "113842.260000", "113843.750000", "113845.240000", "113846.730000", "113848.220000", "113849.710000", "113851.200000", "113852.690000", "113854.180000", "113855.670000", "113857.160000", "113858.650000", "113900.140000", "113901.630000", "113903.120000", "113904.610000", "113906.100000", "113907.590000", "113909.080000", "113910.570000", "113912.060000", "113913.550000", "113915.040000", "113916.530000", "113918.020000", "113919.510000", "113921.000000", "113922.490000", "113923.980000", "113925.470000", "113926.960000", "113928.450000", "113929.940000", "113931.430000", "113932.920000", "113934.410000", "113935.900000", "113937.390000", "113938.880000", "113940.370000", "113941.860000", "113943.350000", "113944.840000", "113946.330000", "113947.820000", "113949.310000", "113950.800000", "113952.290000", "113953.780000", "113955.270000", "113956.760000", "113958.250000", "113959.740000", "114001.230000", "114002.720000", "114004.210000", "114005.700000", "114007.190000", "114008.680000", "114010.170000", "114011.660000", "114013.150000", "114014.640000", "114016.130000", "114017.620000", "114019.110000", "114020.600000", "114022.090000", "114023.580000", "114025.070000", "114026.560000", "114028.050000", "114029.540000", "114031.030000", "114032.520000", "114034.010000", "114035.500000", "114036.990000", "114038.480000", "114039.970000", "114041.460000", "114042.950000", "114044.440000", "114045.930000", "114047.420000", "114048.910000", "114050.400000", "114051.890000", "114053.380000", "114054.870000", "114056.360000", "114057.850000", "114059.340000", "114100.830000", "114102.320000", "114103.810000", "114105.300000", "114106.790000", "114108.280000", "114109.770000", "114111.260000", "114112.750000", "114114.240000", "114115.730000", "114117.220000", "114118.710000", "114120.200000", "114121.690000", "114123.180000", "114124.670000", "114126.160000", "114127.650000", "114129.140000", "114130.630000", "114132.120000", "114133.610000", "114135.100000", "114136.590000", "114138.080000", "114139.570000", "114141.060000", "114142.550000", "114144.040000", "114145.530000", "114147.020000", "114148.510000", "114150.000000", "114151.490000", "114152.980000", "114154.470000", "114155.960000", "114157.450000", "114158.940000", "114200.430000", "114201.920000", "114203.410000", "114204.900000", "114206.390000", "114207.880000", "114209.370000", "114210.860000", "114212.350000", "114213.840000", "114215.330000", "114216.820000", "114218.310000", "114219.800000", "114221.290000", "114222.780000", "114224.270000", "114225.760000", "114227.250000", "114228.740000", "114230.230000", "114231.720000", "114233.210000", "114234.700000", "114236.190000", "114237.680000", "114239.170000", "114240.660000", "114242.150000", "114243.640000", "114245.130000", "114246.620000", "114248.110000", "114249.600000", "114251.090000", "114252.580000", "114254.070000", "114255.560000", "114257.050000", "114258.540000", "114300.030000", "114301.520000", "114303.010000", "114304.500000", "114305.990000", "114307.480000", "114308.970000", "114310.460000", "114311.950000", "114313.440000", "114314.930000", "114316.420000", "114317.910000", "114319.400000", "114320.890000", "114322.380000", "114323.870000", "114325.360000", "114326.850000", "114328.340000", "114329.830000", "114331.320000", "114332.810000", "114334.300000", "114335.790000", "114337.280000", "114338.770000", "114340.260000"],
      "ContentTime": ["113305.340000", "113305.343000", "113305.346000", "113305.349000", "113305.352000", "113305.355000", "113305.358000", "113305.361000", "113305.364000", "113305.367000", "113305.370000", "113305.372000", "113305.388000", "113305.391000", "113305.393000", "113305.396000", "113305.399000", "113305.402000", "113305.405000", "113305.408000", "113305.411000", "113305.414000", "113305.417000", "113305.423000", "113305.426000", "113305.429000", "113305.432000", "113305.435000", "113305.438000", "113305.441000", "113305.444000", "113305.447000", "113305.450000", "113305.453000", "113305.455000", "113305.458000", "113305.461000", "113305.464000", "113325.308000", "113325.311000", "113325.314000", "113325.317000", "113325.320000", "113325.323000", "113325.326000", "113325.329000", "113325.332000", "113325.334000", "113325.337000", "113325.340000", "113325.343000", "113325.346000", "113325.349000", "113325.365000", "113325.368000", "113325.371000", "113325.374000", "113325.377000", "113345.308000", "113345.311000", "113345.314000", "113345.317000", "113345.320000", "113345.323000", "113345.326000", "113345.329000", "113345.331000", "113345.334000", "113345.337000", "113345.340000", "113345.343000", "113345.346000", "113345.349000", "113345.352000", "113345.355000", "113345.358000", "113345.361000", "113345.365000", "113405.308000", "113405.311000", "113405.314000", "113405.317000", "113405.320000", "113405.323000", "113405.326000", "113405.328000", "113405.331000", "113405.334000", "113405.337000", "113405.340000", "113405.343000", "113405.346000", "113405.349000", "113405.352000", "113405.355000", "113405.358000", "113405.361000", "113405.363000", "113405.366000", "113445.308000", "113445.311000", "113445.314000", "113445.317000", "113445.320000", "113445.323000", "113445.326000", "113445.329000", "113445.332000", "113445.335000", "113445.338000", "113445.340000", "113445.343000", "113445.346000", "113445.349000", "113445.352000", "113445.355000", "113445.367000", "113445.370000", "113445.373000", "113445.376000", "113445.379000", "113445.382000", "113445.385000", "113445.388000", "113445.391000", "113445.394000", "113445.397000", "113445.399000", "113445.403000", "113525.308000", "113525.311000", "113525.314000", "113525.317000", "113525.320000", "113525.323000", "113525.326000", "113525.329000", "113525.332000", "113525.335000", "113525.338000", "113525.341000", "113525.343000", "113525.346000", "113525.349000", "113525.352000", "113525.355000", "113525.358000", "113525.361000", "113525.364000", "113525.367000", "113525.370000", "113525.373000", "113525.376000", "113525.379000", "113525.382000", "113525.385000", "113605.308000", "113605.311000", "113605.314000", "113605.317000", "113605.320000", "113605.323000", "113605.326000", "113605.329000", "113605.332000", "113605.335000", "113605.338000", "113605.341000", "113605.344000", "113605.347000", "113605.350000", "113605.353000", "113605.356000", "113605.359000", "113605.362000", "113605.364000", "113605.367000", "113605.370000", "113605.373000", "113605.376000", "113605.379000", "113605.382000", "113645.308000", "113645.315000", "113645.317000", "113645.320000", "113645.323000", "113645.326000", "113645.329000", "113645.332000", "113645.335000", "113645.338000", "113645.341000", "113645.344000", "113645.347000", "113645.350000", "113645.353000", "113645.356000", "113645.359000", "113645.362000", "113645.364000", "113645.367000", "113645.370000", "113645.373000", "113645.376000", "113645.379000", "113645.382000", "113645.385000", "113645.395000", "113725.308000", "113725.311000", "113725.314000", "113725.317000", "113725.320000", "113725.323000", "113725.326000", "113725.329000", "113725.332000", "113725.335000", "113725.338000", "113725.341000", "113725.344000", "113725.347000", "113725.350000", "113725.353000", "113725.356000", "113725.359000", "113725.362000", "113725.365000", "113725.367000", "113725.371000", "113725.373000", "113725.376000", "113725.379000", "113725.382000", "113725.385000", "113805.308000", "113805.311000", "113805.314000", "113805.317000", "113805.320000", "113805.323000", "113805.326000", "113805.329000", "113805.332000", "113805.335000", "113805.338000", "113805.341000", "113805.344000", "113805.347000", "113805.350000", "113805.353000", "113805.356000", "113805.359000", "113805.362000", "113805.365000", "113805.368000", "113805.378000", "113805.381000", "113805.384000", "113805.387000", "113805.390000", "113805.393000", "113845.307000", "113845.310000", "113845.313000", "113845.316000", "113845.319000", "113845.322000", "113845.325000", "113845.328000", "113845.331000", "113845.334000", "113845.337000", "113845.340000", "113845.343000", "113845.346000", "113845.348000", "113845.351000", "113845.354000", "113845.357000", "113845.360000", "113845.363000", "113845.366000", "113845.369000", "113845.372000", "113845.375000", "113845.378000", "113845.381000", "113845.384000", "113925.308000", "113925.311000", "113925.314000", "113925.317000", "113925.320000", "113925.323000", "113925.326000", "113925.329000", "113925.331000", "113925.334000", "113925.337000", "113925.340000", "113925.343000", "113925.346000", "113925.349000", "113925.352000", "113925.355000", "113925.358000", "113925.361000", "113925.364000", "113925.367000", "113925.370000", "113925.373000", "113925.385000", "113925.388000", "113925.391000", "113925.394000", "114005.308000", "114005.311000", "114005.314000", "114005.317000", "114005.320000", "114005.323000", "114005.326000", "114005.329000", "114005.332000", "114005.335000", "114005.338000", "114005.341000", "114005.344000", "114005.347000", "114005.350000", "114005.353000", "114005.356000", "114005.359000", "114005.362000", "114005.365000", "114005.367000", "114005.370000", "114005.373000", "114005.376000", "114005.379000", "114005.382000", "114005.385000", "114045.308000", "114045.311000", "114045.314000", "114045.317000", "114045.320000", "114045.323000", "114045.326000", "114045.329000", "114045.332000", "114045.335000", "114045.338000", "114045.341000", "114045.344000", "114045.347000", "114045.350000", "114045.353000", "114045.355000", "114045.358000", "114045.361000", "114045.364000", "114045.367000", "114045.370000", "114045.373000", "114045.376000", "114045.379000", "114045.383000", "114125.308000", "114125.311000", "114125.314000", "114125.317000", "114125.320000", "114125.323000", "114125.326000", "114125.329000", "114125.332000", "114125.335000", "114125.338000", "114125.341000", "114125.343000", "114125.346000", "114125.349000", "114125.352000", "114125.355000", "114125.358000", "114125.361000", "114125.364000", "114125.367000", "114125.370000", "114125.373000", "114125.376000", "114125.379000", "114125.382000", "114125.385000", "114205.308000", "114205.311000", "114205.314000", "114205.317000", "114205.320000", "114205.323000", "114205.326000", "114205.329000", "114205.332000", "114205.335000", "114205.337000", "114205.340000", "114205.343000", "114205.346000", "114205.349000", "114205.352000", "114205.355000", "114205.358000", "114205.361000", "114205.364000", "114205.374000", "114205.377000", "114205.380000", "114205.383000", "114205.386000", "114205.389000", "114205.392000", "114245.308000", "114245.311000", "114245.314000", "114245.317000", "114245.320000", "114245.323000", "114245.326000", "114245.329000", "114245.332000", "114245.335000", "114245.338000", "114245.341000", "114245.344000", "114245.347000", "114245.349000", "114245.352000", "114245.355000", "114245.358000", "114245.361000", "114245.364000", "114245.367000", "114245.370000", "114245.373000", "114245.376000", "114245.379000", "114245.382000", "114245.385000", "114325.307000", "114325.310000", "114325.313000", "114325.316000", "114325.319000", "114325.330000", "114325.333000", "114325.336000", "114325.339000", "114325.342000", "114325.345000", "114325.348000", "114325.351000", "114325.354000", "114325.357000", "114325.360000", "114325.363000", "114325.366000", "114325.369000", "114325.372000", "114325.375000", "114325.377000", "114325.380000", "114325.383000", "114325.386000", "114325.389000", "114325.392000", "114342.872000", "114342.875000", "114342.878000", "114342.881000", "114342.884000", "114342.897000", "114342.900000", "114342.903000", "114342.906000", "114342.909000", "114342.912000", "114342.915000"],
