{
  "AcquisitionMatrixPE": 104,
  "AcquisitionNumber": 1,
  "AcquisitionTime": "15:23:47.672500",
  "BandwidthPerPixelPhaseEncode": 17.17,
  "BaseResolution": 104,
  "BodyPartExamined": "BRAIN",
  "CoilString": "HC1-7;NC1_2",
  "ConsistencyInfo": "N4_VE11C_LATEST_20160120",
  "ConversionSoftware": "dcm2niix",
  "ConversionSoftwareVersion": "v1.0.20190902",
  "DerivedVendorReportedEchoSpacing": 0.000560011,
  "DeviceSerialNumber": "167006",
  "DwellTime": 2.1e-06,
  "EchoTime": 0.037,
  "EchoTrainLength": 104,
  "EffectiveEchoSpacing": 0.000560011,
  "FlipAngle": 52,
  "ImageComments": "Unaliased_MB4_PE3_LB",
  "ImageOrientationPatientDICOM": [0.999312, -0.0356221, 0.0103246, 0.0368178, 0.91926, -0.391926],
  "ImageType": [
    "ORIGINAL",
    "PRIMARY",
    "M",
    "MB",
    "ND",
    "MOSAIC"
],
  "ImagingFrequency": 123.259,
  "InPlanePhaseEncodingDirectionDICOM": "COL",
  "InstitutionAddress": "Chemin_Queen-Mary_4565_Montreal_District_CA_H3W_1W5",
  "InstitutionName": "IUGM",
  "InstitutionalDepartmentName": "Department",
  "MRAcquisitionType": "2D",
  "MagneticFieldStrength": 3,
  "Manufacturer": "Siemens",
  "ManufacturersModelName": "Prisma_fit",
  "Modality": "MR",
  "MultibandAccelerationFactor": 4,
  "PartialFourier": 1,
  "PatientPosition": "HFS",
  "PercentPhaseFOV": 100,
  "PhaseEncodingDirection": "j",
  "PhaseEncodingSteps": 104,
  "PhaseResolution": 1,
  "PixelBandwidth": 2290,
  "ProcedureStepDescription": "games_shinobi",
  "ProtocolName": "func_task-shinobi_run-2",
  "PulseSequenceDetails": "%CustomerSeq%_cmrr_mbep2d_bold",
  "ReceiveCoilActiveElements": "HC1-7;NC1,2",
  "ReceiveCoilName": "HeadNeck_64",
  "ReconMatrixPE": 104,
  "RepetitionTime": 1.49,
  "SAR": 0.0460286,
  "ScanOptions": "FS",
  "ScanningSequence": "EP",
  "SequenceName": "epfid2d1_104",
  "SequenceVariant": "SK_SS",
  "SeriesDescription": "func_task-shinobi_run-2",
  "SeriesNumber": 11,
  "ShimSetting": [639, -7233, -8850, 517, 39, -199, -164, -10],
  "SliceThickness": 2,
  "SliceTiming": [0, 0.7825, 0.0975, 0.88, 0.195, 0.98, 0.2925, 1.0775, 0.39, 1.175, 0.49, 1.2725, 0.5875, 1.37, 0.685, 0, 0.7825, 0.0975, 0.88, 0.195, 0.98, 0.2925, 1.0775, 0.39, 1.175, 0.49, 1.2725, 0.5875, 1.37, 0.685, 0, 0.7825, 0.0975, 0.88, 0.195, 0.98, 0.2925, 1.0775, 0.39, 1.175, 0.49, 1.2725, 0.5875, 1.37, 0.685, 0, 0.7825, 0.0975, 0.88, 0.195, 0.98, 0.2925, 1.0775, 0.39, 1.175, 0.49, 1.2725, 0.5875, 1.37, 0.685],
  "SoftwareVersions": "syngo_MR_E11",
  "SpacingBetweenSlices": 2,
  "StationName": "MRC35049",
  "TaskName": "shinobi",
  "TotalReadoutTime": 0.0576811,
  "TxRefAmp": 244.893,
  "WipMemBlock": "5597a031-ab0d-4c15-8e21-d585811c171e||Sequence: R016 ve11c/master r/e634e98; Dec 19 2017 11:00:25 by eja",
  "dcmmeta_affine": [
    [-1.9986239671707153, 0.07363554835319519, -0.008940525352954865, 102.86426544189453],
    [0.07124421745538712, 1.8385190963745117, -0.7840737700462341, -64.55392456054688],
    [0.02064918912947178, 0.7838528156280518, 1.8398772478103638, -78.8255386352539],
    [0.0, 0.0, 0.0, 1.0]
],
  "dcmmeta_reorient_transform": [
    [0.0, -1.0, 0.0, 103.0],
    [1.0, 0.0, 0.0, 0.0],
    [0.0, 0.0, 1.0, 0.0],
    [0.0, 0.0, 0.0, 1.0]
],
  "dcmmeta_shape": [104, 104, 60, 428],
  "dcmmeta_slice_dim": 2,
  "dcmmeta_version": 0.6,
  "global": {
    "const": {
      "AcquisitionMatrix": [104, 0, 0, 104],
      "AngioFlag": "N",
      "BitsAllocated": 16,
      "BitsStored": 16,
      "BodyPartExamined": "BRAIN",
      "Columns": 832,
      "EchoNumbers": 1,
      "EchoTime": 37.0,
      "EchoTrainLength": 104,
      "FlipAngle": 52.0,
      "HighBit": 15,
      "ImageOrientationPatient": [0.99931199741421, -0.0356221078332, 0.01032459478835, 0.03681777528083, 0.91925955893917, -0.3919264149331],
      "ImagePositionPatient": [-864.7512004641, -768.10161200574, 279.71743054699],
      "ImageType": [
        "ORIGINAL",
        "PRIMARY",
        "M",
        "MB",
        "ND",
        "MOSAIC"
],
      "ImagedNucleus": "1H",
      "ImagingFrequency": 123.259042,
      "InPlanePhaseEncodingDirection": "COL",
      "MRAcquisitionType": "2D",
      "MagneticFieldStrength": 3.0,
      "Manufacturer": "SIEMENS",
      "ManufacturerModelName": "Prisma_fit",
      "Modality": "MR",
      "NumberOfAverages": 1.0,
      "NumberOfPhaseEncodingSteps": 104,
      "PercentPhaseFieldOfView": 100.0,
      "PercentSampling": 100.0,
      "PerformedProcedureStepStartTime": "150705.572000",
      "PhotometricInterpretation": "MONOCHROME2",
      "PixelBandwidth": 2290.0,
      "PixelRepresentation": 0,
      "PixelSpacing": [2.0, 2.0],
      "ProtocolName": "func_task-shinobi_run-2",
      "RepetitionTime": 1490.0,
      "Rows": 832,
      "SAR": 0.04602855070246,
      "SamplesPerPixel": 1,
      "ScanOptions": "FS",
      "ScanningSequence": "EP",
      "SequenceName": "epfid2d1_104",
      "SequenceVariant": [
        "SK",
        "SS"
],
      "SeriesDescription": "func_task-shinobi_run-2",
      "SeriesNumber": 11,
      "SeriesTime": "152504.353000",
      "SliceLocation": -47.666966977825,
      "SliceThickness": 2.0,
      "SmallestImagePixelValue": 0,
      "SoftwareVersions": "syngo MR E11",
      "SpacingBetweenSlices": 1.9999999919457,
      "SpecificCharacterSet": "ISO_IR 100",
      "StudyID": "1",
      "StudyTime": "150705.509000",
      "TransmitCoilName": "Body",
      "VariableFlipAngleFlag": "N",
      "WindowCenterWidthExplanation": "Algo1",
      "dBdt": 0.0},
    "slices": {}
  },
  "time": {
    "samples": {
      "AcquisitionNumber": [1, 2, 3, 4, 5, 6, 7, 8, 9, 10, 11, 12, 13, 14, 15, 16, 17, 18, 19, 20, 21, 22, 23, 24, 25, 26, 27, 28, 29, 30, 31, 32, 33, 34, 35, 36, 37, 38, 39, 40, 41, 42, 43, 44, 45, 46, 47, 48, 49, 50, 51, 52, 53, 54, 55, 56, 57, 58, 59, 60, 61, 62, 63, 64, 65, 66, 67, 68, 69, 70, 71, 72, 73, 74, 75, 76, 77, 78, 79, 80, 81, 82, 83, 84, 85, 86, 87, 88, 89, 90, 91, 92, 93, 94, 95, 96, 97, 98, 99, 100, 101, 102, 103, 104, 105, 106, 107, 108, 109, 110, 111, 112, 113, 114, 115, 116, 117, 118, 119, 120, 121, 122, 123, 124, 125, 126, 127, 128, 129, 130, 131, 132, 133, 134, 135, 136, 137, 138, 139, 140, 141, 142, 143, 144, 145, 146, 147, 148, 149, 150, 151, 152, 153, 154, 155, 156, 157, 158, 159, 160, 161, 162, 163, 164, 165, 166, 167, 168, 169, 170, 171, 172, 173, 174, 175, 176, 177, 178, 179, 180, 181, 182, 183, 184, 185, 186, 187, 188, 189, 190, 191, 192, 193, 194, 195, 196, 197, 198, 199, 200, 201, 202, 203, 204, 205, 206, 207, 208, 209, 210, 211, 212, 213, 214, 215, 216, 217, 218, 219, 220, 221, 222, 223, 224, 225, 226, 227, 228, 229, 230, 231, 232, 233, 234, 235, 236, 237, 238, 239, 240, 241, 242, 243, 244, 245, 246, 247, 248, 249, 250, 251, 252, 253, 254, 255, 256, 257, 258, 259, 260, 261, 262, 263, 264, 265, 266, 267, 268, 269, 270, 271, 272, 273, 274, 275, 276, 277, 278, 279, 280, 281, 282, 283, 284, 285, 286, 287, 288, 289, 290, 291, 292, 293, 294, 295, 296, 297, 298, 299, 300, 301, 302, 303, 304, 305, 306, 307, 308, 309, 310, 311, 312, 313, 314, 315, 316, 317, 318, 319, 320, 321, 322, 323, 324, 325, 326, 327, 328, 329, 330, 331, 332, 333, 334, 335, 336, 337, 338, 339, 340, 341, 342, 343, 344, 345, 346, 347, 348, 349, 350, 351, 352, 353, 354, 355, 356, 357, 358, 359, 360, 361, 362, 363, 364, 365, 366, 367, 368, 369, 370, 371, 372, 373, 374, 375, 376, 377, 378, 379, 380, 381, 382, 383, 384, 385, 386, 387, 388, 389, 390, 391, 392, 393, 394, 395, 396, 397, 398, 399, 400, 401, 402, 403, 404, 405, 406, 407, 408, 409, 410, 411, 412, 413, 414, 415, 416, 417, 418, 419, 420, 421, 422, 423, 424, 425, 426, 427, 428],
      "AcquisitionTime": ["152347.672500", "152349.162500", "152350.652500", "152352.142500", "152353.632500", "152355.122500", "152356.612500", "152358.102500", "152359.592500", "152401.082500", "152402.572500", "152404.062500", "152405.552500", "152407.042500", "152408.532500", "152410.022500", "152411.512500", "152413.002500", "152414.492500", "152415.982500", "152417.472500", "152418.962500", "152420.452500", "152421.942500", "152423.432500", "152424.922500", "152426.412500", "152427.902500", "152429.392500", "152430.882500", "152432.372500", "152433.862500", "152435.352500", "152436.842500", "152438.332500", "152439.822500", "152441.312500", "152442.802500", "152444.292500", "152445.782500", "152447.272500", "152448.762500", "152450.252500", "152451.742500", "152453.232500", "152454.722500", "152456.212500", "152457.702500", "152459.192500", "152500.682500", "152502.172500", "152503.662500", "152505.152500", "152506.642500", "152508.132500", "152509.622500", "152511.112500", "152512.602500", "152514.092500", "152515.582500", "152517.072500", "152518.562500", "152520.052500", "152521.542500", "152523.032500", "152524.522500", "152526.012500", "152527.502500", "152528.992500", "152530.482500", "152531.972500", "152533.462500", "152534.952500", "152536.442500", "152537.932500", "152539.422500", "152540.912500", "152542.402500", "152543.892500", "152545.382500", "152546.872500", "152548.362500", "152549.852500", "152551.342500", "152552.832500", "152554.322500", "152555.812500", "152557.302500", "152558.792500", "152600.282500", "152601.772500", "152603.262500", "152604.752500", "152606.242500", "152607.732500", "152609.222500", "152610.712500", "152612.202500", "152613.692500", "152615.182500", "152616.672500", "152618.162500", "152619.652500", "152621.142500", "152622.632500", "152624.122500", "152625.612500", "152627.102500", "152628.592500", "152630.082500", "152631.572500", "152633.062500", "152634.552500", "152636.042500", "152637.532500", "152639.022500", "152640.512500", "152642.002500", "152643.492500", "152644.982500", "152646.472500", "152647.962500", "152649.452500", "152650.942500", "152652.432500", "152653.922500", "152655.412500", "152656.902500", "152658.392500", "152659.882500", "152701.372500", "152702.862500", "152704.352500", "152705.842500", "152707.332500", "152708.822500", "152710.312500", "152711.802500", "152713.292500", "152714.782500", "152716.272500", "152717.762500", "152719.252500", "152720.742500", "152722.232500", "152723.722500", "152725.212500", "152726.702500", "152728.192500", "152729.682500", "152731.172500", "152732.662500", "152734.152500", "152735.642500", "152737.132500", "152738.622500", "152740.112500", "152741.602500", "152743.092500", "152744.582500", "152746.072500", "152747.562500", "152749.052500", "152750.542500", "152752.032500", "152753.522500", "152755.012500", "152756.502500", "152757.992500", "152759.482500", "152800.972500", "152802.462500", "152803.952500", "152805.442500", "152806.932500", "152808.422500", "152809.912500", "152811.402500", "152812.892500", "152814.382500", "152815.872500", "152817.362500", "152818.852500", "152820.342500", "152821.832500", "152823.322500", "152824.812500", "152826.302500", "152827.792500", "152829.282500", "152830.772500", "152832.262500", "152833.752500", "152835.242500", "152836.732500", "152838.222500", "152839.712500", "152841.202500", "152842.692500", "152844.182500", "152845.672500", "152847.162500", "152848.652500", "152850.142500", "152851.632500", "152853.122500", "152854.612500", "152856.102500", "152857.592500", "152859.082500", "152900.572500", "152902.062500", "152903.552500", "152905.042500", "152906.532500", "152908.022500", "152909.512500", "152911.002500", "152912.492500", "152913.982500", "152915.472500", "152916.962500", "152918.452500", "152919.942500", "152921.432500", "152922.922500", "152924.412500", "152925.902500", "152927.392500", "152928.882500", "152930.372500", "152931.862500", "152933.352500", "152934.842500", "152936.332500", "152937.822500", "152939.312500", "152940.802500", "152942.292500", "152943.782500", "152945.272500", "152946.762500", "152948.252500", "152949.742500", "152951.232500", "152952.722500", "152954.212500", "152955.702500", "152957.192500", "152958.682500", "153000.172500", "153001.662500", "153003.152500", "153004.642500", "153006.132500", "153007.622500", "153009.112500", "153010.602500", "153012.092500", "153013.582500", "153015.072500", "153016.562500", "153018.052500", "153019.542500", "153021.032500", "153022.522500", "153024.012500", "153025.502500", "153026.992500", "153028.482500", "153029.972500", "153031.462500", "153032.952500", "153034.442500", "153035.932500", "153037.422500", "153038.912500", "153040.402500", "153041.892500", "153043.382500", "153044.872500", "153046.362500", "153047.852500", "153049.342500", "153050.832500", "153052.322500", "153053.812500", "153055.302500", "153056.792500", "153058.282500", "153059.772500", "153101.262500", "153102.752500", "153104.242500", "153105.732500", "153107.222500", "153108.712500", "153110.202500", "153111.692500", "153113.182500", "153114.672500", "153116.162500", "153117.652500", "153119.142500", "153120.632500", "153122.122500", "153123.612500", "153125.102500", "153126.592500", "153128.082500", "153129.572500", "153131.062500", "153132.552500", "153134.042500", "153135.532500", "153137.022500", "153138.512500", "153140.002500", "153141.492500", "153142.982500", "153144.472500", "153145.962500", "153147.452500", "153148.942500", "153150.432500", "153151.922500", "153153.412500", "153154.902500", "153156.392500", "153157.882500", "153159.372500", "153200.862500", "153202.352500", "153203.842500", "153205.332500", "153206.822500", "153208.312500", "153209.802500", "153211.292500", "153212.782500", "153214.272500", "153215.762500", "153217.252500", "153218.742500", "153220.232500", "153221.722500", "153223.212500", "153224.702500", "153226.192500", "153227.682500", "153229.172500", "153230.662500", "153232.152500", "153233.642500", "153235.132500", "153236.622500", "153238.112500", "153239.602500", "153241.092500", "153242.582500", "153244.072500", "153245.562500", "153247.052500", "153248.542500", "153250.032500", "153251.522500", "153253.012500", "153254.502500", "153255.992500", "153257.482500", "153258.972500", "153300.462500", "153301.952500", "153303.442500", "153304.932500", "153306.422500", "153307.912500", "153309.402500", "153310.892500", "153312.382500", "153313.872500", "153315.362500", "153316.852500", "153318.342500", "153319.832500", "153321.322500", "153322.812500", "153324.302500", "153325.792500", "153327.282500", "153328.772500", "153330.262500", "153331.752500", "153333.242500", "153334.732500", "153336.222500", "153337.712500", "153339.202500", "153340.692500", "153342.182500", "153343.672500", "153345.162500", "153346.652500", "153348.142500", "153349.632500", "153351.122500", "153352.612500", "153354.102500", "153355.592500", "153357.082500", "153358.572500", "153400.062500", "153401.552500", "153403.042500", "153404.532500", "153406.022500", "153407.512500", "153409.002500", "153410.492500", "153411.982500", "153413.472500", "153414.962500", "153416.452500", "153417.942500", "153419.432500", "153420.922500", "153422.412500", "153423.902500"],
      "ContentTime": ["152504.356000", "152504.359000", "152504.362000", "152504.365000", "152504.368000", "152504.371000", "152504.374000", "152504.377000", "152504.380000", "152504.388000", "152504.391000", "152504.414000", "152504.416000", "152504.419000", "152504.422000", "152504.425000", "152504.428000", "152504.431000", "152504.434000", "152504.437000", "152504.446000", "152504.449000", "152524.318000", "152524.321000", "152524.324000", "152524.327000", "152524.330000", "152524.333000", "152524.336000", "152524.338000", "152524.342000", "152524.344000", "152524.347000", "152524.350000", "152524.353000", "152524.356000", "152524.359000", "152524.362000", "152524.365000", "152524.368000", "152524.371000", "152524.379000", "152544.318000", "152544.321000", "152544.324000", "152544.327000", "152544.337000", "152544.340000", "152544.343000", "152544.346000", "152544.349000", "152544.352000", "152544.355000", "152544.358000", "152544.360000", "152544.363000", "152544.366000", "152544.369000", "152544.372000", "152544.375000", "152544.378000", "152544.381000", "152544.384000", "152604.318000", "152604.321000", "152604.324000", "152604.327000", "152604.330000", "152604.333000", "152604.335000", "152604.338000", "152604.341000", "152604.344000", "152604.347000", "152604.350000", "152604.353000", "152604.356000", "152604.359000", "152604.362000", "152604.370000", "152604.373000", "152604.376000", "152604.379000", "152624.318000", "152624.321000", "152624.324000", "152624.327000", "152624.330000", "152624.333000", "152624.336000", "152624.339000", "152624.342000", "152624.345000", "152624.348000", "152624.351000", "152624.353000", "152624.357000", "152624.359000", "152624.362000", "152624.365000", "152624.368000", "152624.371000", "152624.374000", "152704.318000", "152704.321000", "152704.324000", "152704.327000", "152704.330000", "152704.333000", "152704.336000", "152704.339000", "152704.342000", "152704.345000", "152704.348000", "152704.351000", "152704.353000", "152704.357000", "152704.359000", "152704.362000", "152704.374000", "152704.377000", "152704.380000", "152704.382000", "152704.385000", "152704.388000", "152704.391000", "152704.394000", "152704.397000", "152704.400000", "152704.403000", "152704.406000", "152744.318000", "152744.321000", "152744.324000", "152744.327000", "152744.330000", "152744.333000", "152744.336000", "152744.339000", "152744.342000", "152744.344000", "152744.347000", "152744.350000", "152744.353000", "152744.356000", "152744.359000", "152744.362000", "152744.365000", "152744.368000", "152744.371000", "152744.374000", "152744.377000", "152744.380000", "152744.383000", "152744.386000", "152744.389000", "152744.392000", "152744.394000", "152824.318000", "152824.321000", "152824.324000", "152824.327000", "152824.330000", "152824.333000", "152824.336000", "152824.339000", "152824.342000", "152824.345000", "152824.348000", "152824.350000", "152824.353000", "152824.356000", "152824.359000", "152824.362000", "152824.365000", "152824.368000", "152824.371000", "152824.374000", "152824.377000", "152824.380000", "152824.383000", "152824.386000", "152824.389000", "152824.392000", "152824.395000", "152904.318000", "152904.321000", "152904.324000", "152904.327000", "152904.330000", "152904.333000", "152904.336000", "152904.339000", "152904.342000", "152904.345000", "152904.348000", "152904.351000", "152904.354000", "152904.357000", "152904.360000", "152904.362000", "152904.365000", "152904.368000", "152904.371000", "152904.374000", "152904.377000", "152904.380000", "152904.383000", "152904.395000", "152904.398000", "152904.401000", "152904.404000", "152944.318000", "152944.321000", "152944.324000", "152944.327000", "152944.330000", "152944.333000", "152944.336000", "152944.339000", "152944.342000", "152944.345000", "152944.348000", "152944.350000", "152944.354000", "152944.357000", "152944.359000", "152944.362000", "152944.365000", "152944.368000", "152944.371000", "152944.374000", "152944.377000", "152944.380000", "152944.383000", "152944.386000", "152944.389000", "152944.392000", "152944.395000", "153024.318000", "153024.334000", "153024.336000", "153024.339000", "153024.342000", "153024.345000", "153024.348000", "153024.351000", "153024.354000", "153024.357000", "153024.360000", "153024.363000", "153024.366000", "153024.369000", "153024.372000", "153024.375000", "153024.378000", "153024.381000", "153024.384000", "153024.386000", "153024.389000", "153024.392000", "153024.395000", "153024.399000", "153024.402000", "153024.405000", "153104.318000", "153104.321000", "153104.324000", "153104.327000", "153104.330000", "153104.333000", "153104.336000", "153104.339000", "153104.342000", "153104.345000", "153104.348000", "153104.351000", "153104.354000", "153104.357000", "153104.360000", "153104.362000", "153104.365000", "153104.368000", "153104.371000", "153104.374000", "153104.377000", "153104.380000", "153104.383000", "153104.386000", "153104.389000", "153104.392000", "153104.395000", "153124.318000", "153124.321000", "153124.324000", "153124.327000", "153124.330000", "153124.333000", "153124.336000", "153124.339000", "153124.342000", "153124.345000", "153124.348000", "153124.351000", "153124.354000", "153124.357000", "153204.318000", "153204.321000", "153204.325000", "153204.327000", "153204.330000", "153204.334000", "153204.337000", "153204.340000", "153204.344000", "153204.347000", "153204.350000", "153204.353000", "153204.356000", "153204.359000", "153204.362000", "153204.365000", "153204.368000", "153204.376000", "153204.380000", "153204.383000", "153204.386000", "153204.389000", "153204.392000", "153204.395000", "153204.398000", "153204.401000", "153204.404000", "153244.318000", "153244.321000", "153244.324000", "153244.327000", "153244.330000", "153244.333000", "153244.336000", "153244.339000", "153244.342000", "153244.345000", "153244.348000", "153244.351000", "153244.354000", "153244.357000", "153244.360000", "153244.363000", "153244.366000", "153244.369000", "153244.372000", "153244.375000", "153244.378000", "153244.381000", "153244.384000", "153244.387000", "153244.390000", "153244.393000", "153324.318000", "153324.321000", "153324.324000", "153324.327000", "153324.330000", "153324.333000", "153324.336000", "153324.339000", "153324.342000", "153324.345000", "153324.348000", "153324.351000", "153324.354000", "153324.357000", "153324.359000", "153324.363000", "153324.365000", "153324.368000", "153324.371000", "153324.375000", "153324.378000", "153324.380000", "153324.383000", "153324.386000", "153324.389000", "153324.392000", "153324.395000", "153404.318000", "153404.321000", "153404.324000", "153404.327000", "153404.330000", "153404.342000", "153404.346000", "153404.348000", "153404.351000", "153404.354000", "153404.358000", "153404.360000", "153404.363000", "153404.366000", "153404.369000", "153404.372000", "153404.375000", "153404.378000", "153404.381000", "153404.384000", "153404.391000", "153404.394000", "153404.397000", "153404.400000", "153404.403000", "153404.406000", "153404.409000", "153426.996000", "153427.001000", "153427.003000", "153427.006000", "153427.009000", "153427.012000", "153427.015000", "153427.018000", "153427.021000", "153427.024000", "153427.027000", "153427.030000", "153427.033000", "153427.036000", "153427.039000"],
      "InstanceCreationTime": ["152504.356000", "152504.359000", "152504.362000", "152504.365000", "152504.368000", "152504.371000", "152504.374000", "152504.377000", "152504.380000", "152504.388000", "152504.391000", "152504.414000", "152504.416000", "152504.419000", "152504.422000", "152504.425000", "152504.428000", "152504.431000", "152504.434000", "152504.437000", "152504.446000", "152504.449000", "152524.318000", "152524.321000", "152524.324000", "152524.327000", "152524.330000", "152524.333000", "152524.336000", "152524.338000", "152524.342000", "152524.344000", "152524.347000", "152524.350000", "152524.353000", "152524.356000", "152524.359000", "152524.362000", "152524.365000", "152524.368000", "152524.371000", "152524.379000", "152544.318000", "152544.321000", "152544.324000", "152544.327000", "152544.337000", "152544.340000", "152544.343000", "152544.346000", "152544.349000", "152544.352000", "152544.355000", "152544.358000", "152544.360000", "152544.363000", "152544.366000", "152544.369000", "152544.372000", "152544.375000", "152544.378000", "152544.381000", "152544.384000", "152604.318000", "152604.321000", "152604.324000", "152604.327000", "152604.330000", "152604.333000", "152604.335000", "152604.338000", "152604.341000", "152604.344000", "152604.347000", "152604.350000", "152604.353000", "152604.356000", "152604.359000", "152604.362000", "152604.370000", "152604.373000", "152604.376000", "152604.379000", "152624.318000", "152624.321000", "152624.324000", "152624.327000", "152624.330000", "152624.333000", "152624.336000", "152624.339000", "152624.342000", "152624.345000", "152624.348000", "152624.351000", "152624.353000", "152624.357000", "152624.359000", "152624.362000", "152624.365000", "152624.368000", "152624.371000", "152624.374000", "152704.318000", "152704.321000", "152704.324000", "152704.327000", "152704.330000", "152704.333000", "152704.336000", "152704.339000", "152704.342000", "152704.345000", "152704.348000", "152704.351000", "152704.353000", "152704.357000", "152704.359000", "152704.362000", "152704.374000", "152704.377000", "152704.380000", "152704.382000", "152704.385000", "152704.388000", "152704.391000", "152704.394000", "152704.397000", "152704.400000", "152704.403000", "152704.406000", "152744.318000", "152744.321000", "152744.324000", "152744.327000", "152744.330000", "152744.333000", "152744.336000", "152744.339000", "152744.342000", "152744.344000", "152744.347000", "152744.350000", "152744.353000", "152744.356000", "152744.359000", "152744.362000", "152744.365000", "152744.368000", "152744.371000", "152744.374000", "152744.377000", "152744.380000", "152744.383000", "152744.386000", "152744.389000", "152744.392000", "152744.394000", "152824.318000", "152824.321000", "152824.324000", "152824.327000", "152824.330000", "152824.333000", "152824.336000", "152824.339000", "152824.342000", "152824.345000", "152824.348000", "152824.350000", "152824.353000", "152824.356000", "152824.359000", "152824.362000", "152824.365000", "152824.368000", "152824.371000", "152824.374000", "152824.377000", "152824.380000", "152824.383000", "152824.386000", "152824.389000", "152824.392000", "152824.395000", "152904.318000", "152904.321000", "152904.324000", "152904.327000", "152904.330000", "152904.333000", "152904.336000", "152904.339000", "152904.342000", "152904.345000", "152904.348000", "152904.351000", "152904.354000", "152904.357000", "152904.360000", "152904.362000", "152904.365000", "152904.368000", "152904.371000", "152904.374000", "152904.377000", "152904.380000", "152904.383000", "152904.395000", "152904.398000", "152904.401000", "152904.404000", "152944.318000", "152944.321000", "152944.324000", "152944.327000", "152944.330000", "152944.333000", "152944.336000", "152944.339000", "152944.342000", "152944.345000", "152944.348000", "152944.350000", "152944.354000", "152944.357000", "152944.359000", "152944.362000", "152944.365000", "152944.368000", "152944.371000", "152944.374000", "152944.377000", "152944.380000", "152944.383000", "152944.386000", "152944.389000", "152944.392000", "152944.395000", "153024.318000", "153024.334000", "153024.336000", "153024.339000", "153024.342000", "153024.345000", "153024.348000", "153024.351000", "153024.354000", "153024.357000", "153024.360000", "153024.363000", "153024.366000", "153024.369000", "153024.372000", "153024.375000", "153024.378000", "153024.381000", "153024.384000", "153024.386000", "153024.389000", "153024.392000", "153024.395000", "153024.399000", "153024.402000", "153024.405000", "153104.318000", "153104.321000", "153104.324000", "153104.327000", "153104.330000", "153104.333000", "153104.336000", "153104.339000", "153104.342000", "153104.345000", "153104.348000", "153104.351000", "153104.354000", "153104.357000", "153104.360000", "153104.362000", "153104.365000", "153104.368000", "153104.371000", "153104.374000", "153104.377000", "153104.380000", "153104.383000", "153104.386000", "153104.389000", "153104.392000", "153104.395000", "153124.318000", "153124.321000", "153124.324000", "153124.327000", "153124.330000", "153124.333000", "153124.336000", "153124.339000", "153124.342000", "153124.345000", "153124.348000", "153124.351000", "153124.354000", "153124.357000", "153204.318000", "153204.321000", "153204.325000", "153204.327000", "153204.330000", "153204.334000", "153204.337000", "153204.340000", "153204.344000", "153204.347000", "153204.350000", "153204.353000", "153204.356000", "153204.359000", "153204.362000", "153204.365000", "153204.368000", "153204.376000", "153204.380000", "153204.383000", "153204.386000", "153204.389000", "153204.392000", "153204.395000", "153204.398000", "153204.401000", "153204.404000", "153244.318000", "153244.321000", "153244.324000", "153244.327000", "153244.330000", "153244.333000", "153244.336000", "153244.339000", "153244.342000", "153244.345000", "153244.348000", "153244.351000", "153244.354000", "153244.357000", "153244.360000", "153244.363000", "153244.366000", "153244.369000", "153244.372000", "153244.375000", "153244.378000", "153244.381000", "153244.384000", "153244.387000", "153244.390000", "153244.393000", "153324.318000", "153324.321000", "153324.324000", "153324.327000", "153324.330000", "153324.333000", "153324.336000", "153324.339000", "153324.342000", "153324.345000", "153324.348000", "153324.351000", "153324.354000", "153324.357000", "153324.359000", "153324.363000", "153324.365000", "153324.368000", "153324.371000", "153324.375000", "153324.378000", "153324.380000", "153324.383000", "153324.386000", "153324.389000", "153324.392000", "153324.395000", "153404.318000", "153404.321000", "153404.324000", "153404.327000", "153404.330000", "153404.342000", "153404.346000", "153404.348000", "153404.351000", "153404.354000", "153404.358000", "153404.360000", "153404.363000", "153404.366000", "153404.369000", "153404.372000", "153404.375000", "153404.378000", "153404.381000", "153404.384000", "153404.391000", "153404.394000", "153404.397000", "153404.400000", "153404.403000", "153404.406000", "153404.409000", "153426.996000", "153427.001000", "153427.003000", "153427.006000", "153427.009000", "153427.012000", "153427.015000", "153427.018000", "153427.021000", "153427.024000", "153427.027000", "153427.030000", "153427.033000", "153427.036000", "153427.039000"],
