{
  "AcquisitionMatrixPE": 104,
  "AcquisitionNumber": 1,
  "AcquisitionTime": "16:25:27.805000",
  "BandwidthPerPixelPhaseEncode": 17.17,
  "BaseResolution": 104,
  "BodyPartExamined": "BRAIN",
  "CoilString": "HC1-7;NC1_2",
  "ConsistencyInfo": "N4_VE11C_LATEST_20160120",
  "ConversionSoftware": "dcm2niix",
  "ConversionSoftwareVersion": "v1.0.20190902",
  "DerivedVendorReportedEchoSpacing": 0.000560011,
  "DeviceSerialNumber": "167006",
  "DwellTime": 2.1e-06,
  "EchoTime": 0.037,
  "EchoTrainLength": 104,
  "EffectiveEchoSpacing": 0.000560011,
  "FlipAngle": 52,
  "ImageComments": "Unaliased_MB4_PE3_LB",
  "ImageOrientationPatientDICOM": [0.996291, 0.0541128, 0.0669005, -0.0377512, 0.973563, -0.225275],
  "ImageType": [
    "ORIGINAL",
    "PRIMARY",
    "M",
    "MB",
    "ND",
    "MOSAIC"
],
  "ImagingFrequency": 123.259,
  "InPlanePhaseEncodingDirectionDICOM": "COL",
  "InstitutionAddress": "Chemin_Queen-Mary_4565_Montreal_District_CA_H3W_1W5",
  "InstitutionName": "IUGM",
  "InstitutionalDepartmentName": "Department",
  "MRAcquisitionType": "2D",
  "MagneticFieldStrength": 3,
  "Manufacturer": "Siemens",
  "ManufacturersModelName": "Prisma_fit",
  "Modality": "MR",
  "MultibandAccelerationFactor": 4,
  "PartialFourier": 1,
  "PatientPosition": "HFS",
  "PercentPhaseFOV": 100,
  "PhaseEncodingDirection": "j",
  "PhaseEncodingSteps": 104,
  "PhaseResolution": 1,
  "PixelBandwidth": 2290,
  "ProcedureStepDescription": "games_shinobi",
  "ProtocolName": "func_task-shinobi_run-1",
  "PulseSequenceDetails": "%CustomerSeq%_cmrr_mbep2d_bold",
  "ReceiveCoilActiveElements": "HC1-7;NC1,2",
  "ReceiveCoilName": "HeadNeck_64",
  "ReconMatrixPE": 104,
  "RepetitionTime": 1.49,
  "SAR": 0.0408295,
  "ScanOptions": "FS",
  "ScanningSequence": "EP",
  "SequenceName": "epfid2d1_104",
  "SequenceVariant": "SK_SS",
  "SeriesDescription": "func_task-shinobi_run-1",
  "SeriesNumber": 9,
  "ShimSetting": [638, -7225, -8814, 672, 77, -66, 131, 0],
  "SliceThickness": 2,
  "SliceTiming": [0, 0.785, 0.0975, 0.8825, 0.1975, 0.98, 0.295, 1.0775, 0.3925, 1.1775, 0.49, 1.275, 0.5875, 1.3725, 0.6875, 0, 0.785, 0.0975, 0.8825, 0.1975, 0.98, 0.295, 1.0775, 0.3925, 1.1775, 0.49, 1.275, 0.5875, 1.3725, 0.6875, 0, 0.785, 0.0975, 0.8825, 0.1975, 0.98, 0.295, 1.0775, 0.3925, 1.1775, 0.49, 1.275, 0.5875, 1.3725, 0.6875, 0, 0.785, 0.0975, 0.8825, 0.1975, 0.98, 0.295, 1.0775, 0.3925, 1.1775, 0.49, 1.275, 0.5875, 1.3725, 0.6875],
  "SoftwareVersions": "syngo_MR_E11",
  "SpacingBetweenSlices": 2,
  "StationName": "MRC35049",
  "TaskName": "shinobi",
  "TotalReadoutTime": 0.0576811,
  "TxRefAmp": 248.317,
  "WipMemBlock": "78894229-0e49-4927-8b5b-94907e50152b||Sequence: R016 ve11c/master r/e634e98; Dec 19 2017 11:00:25 by eja",
  "dcmmeta_affine": [
    [-1.9925823211669922, -0.0755024403333664, 0.1546444147825241, 106.73948669433594],
    [-0.10822562128305435, 1.9471269845962524, -0.4438287317752838, -62.617855072021484],
    [0.13380105793476105, 0.4505508840084076, 1.9439910650253296, -48.535133361816406],
    [0.0, 0.0, 0.0, 1.0]
],
  "dcmmeta_reorient_transform": [
    [0.0, -1.0, 0.0, 103.0],
    [1.0, 0.0, 0.0, 0.0],
    [0.0, 0.0, 1.0, 0.0],
    [0.0, 0.0, 0.0, 1.0]
],
  "dcmmeta_shape": [104, 104, 60, 479],
  "dcmmeta_slice_dim": 2,
  "dcmmeta_version": 0.6,
  "global": {
    "const": {
      "AcquisitionMatrix": [104, 0, 0, 104],
      "AngioFlag": "N",
      "BitsAllocated": 16,
      "BitsStored": 16,
      "BodyPartExamined": "BRAIN",
      "Columns": 832,
      "EchoNumbers": 1,
      "EchoTime": 37.0,
      "EchoTrainLength": 104,
      "FlipAngle": 52.0,
      "HighBit": 15,
      "ImageOrientationPatient": [0.99629118349584, 0.05411281198706, 0.06690053263842, -0.0377512215449, 0.97356346363211, -0.2252754481796],
      "ImagePositionPatient": [-796.77982429186, -886.08454553146, 113.16854732976],
      "ImageType": [
        "ORIGINAL",
        "PRIMARY",
        "M",
        "MB",
        "ND",
        "MOSAIC"
],
      "ImagedNucleus": "1H",
      "ImagingFrequency": 123.259227,
      "InPlanePhaseEncodingDirection": "COL",
      "MRAcquisitionType": "2D",
      "MagneticFieldStrength": 3.0,
      "Manufacturer": "SIEMENS",
      "ManufacturerModelName": "Prisma_fit",
      "Modality": "MR",
      "NumberOfAverages": 1.0,
      "NumberOfPhaseEncodingSteps": 104,
      "PercentPhaseFieldOfView": 100.0,
      "PercentSampling": 100.0,
      "PerformedProcedureStepStartTime": "162155.436000",
      "PhotometricInterpretation": "MONOCHROME2",
      "PixelBandwidth": 2290.0,
      "PixelRepresentation": 0,
      "PixelSpacing": [2.0, 2.0],
      "ProtocolName": "func_task-shinobi_run-1",
      "RepetitionTime": 1490.0,
      "Rows": 832,
      "SAR": 0.04082952293303,
      "SamplesPerPixel": 1,
      "ScanOptions": "FS",
      "ScanningSequence": "EP",
      "SequenceName": "epfid2d1_104",
      "SequenceVariant": [
        "SK",
        "SS"
],
      "SeriesDescription": "func_task-shinobi_run-1",
      "SeriesNumber": 9,
      "SeriesTime": "162720.728000",
      "SliceLocation": -25.02679844268,
      "SliceThickness": 2.0,
      "SmallestImagePixelValue": 0,
      "SoftwareVersions": "syngo MR E11",
      "SpacingBetweenSlices": 2.0000000580216,
      "SpecificCharacterSet": "ISO_IR 100",
      "StudyID": "1",
      "StudyTime": "162155.346000",
      "TransmitCoilName": "Body",
      "VariableFlipAngleFlag": "N",
      "WindowCenterWidthExplanation": "Algo1",
      "dBdt": 0.0},
    "slices": {}
  },
  "time": {
    "samples": {
      "AcquisitionNumber": [1, 2, 3, 4, 5, 6, 7, 8, 9, 10, 11, 12, 13, 14, 15, 16, 17, 18, 19, 20, 21, 22, 23, 24, 25, 26, 27, 28, 29, 30, 31, 32, 33, 34, 35, 36, 37, 38, 39, 40, 41, 42, 43, 44, 45, 46, 47, 48, 49, 50, 51, 52, 53, 54, 55, 56, 57, 58, 59, 60, 61, 62, 63, 64, 65, 66, 67, 68, 69, 70, 71, 72, 73, 74, 75, 76, 77, 78, 79, 80, 81, 82, 83, 84, 85, 86, 87, 88, 89, 90, 91, 92, 93, 94, 95, 96, 97, 98, 99, 100, 101, 102, 103, 104, 105, 106, 107, 108, 109, 110, 111, 112, 113, 114, 115, 116, 117, 118, 119, 120, 121, 122, 123, 124, 125, 126, 127, 128, 129, 130, 131, 132, 133, 134, 135, 136, 137, 138, 139, 140, 141, 142, 143, 144, 145, 146, 147, 148, 149, 150, 151, 152, 153, 154, 155, 156, 157, 158, 159, 160, 161, 162, 163, 164, 165, 166, 167, 168, 169, 170, 171, 172, 173, 174, 175, 176, 177, 178, 179, 180, 181, 182, 183, 184, 185, 186, 187, 188, 189, 190, 191, 192, 193, 194, 195, 196, 197, 198, 199, 200, 201, 202, 203, 204, 205, 206, 207, 208, 209, 210, 211, 212, 213, 214, 215, 216, 217, 218, 219, 220, 221, 222, 223, 224, 225, 226, 227, 228, 229, 230, 231, 232, 233, 234, 235, 236, 237, 238, 239, 240, 241, 242, 243, 244, 245, 246, 247, 248, 249, 250, 251, 252, 253, 254, 255, 256, 257, 258, 259, 260, 261, 262, 263, 264, 265, 266, 267, 268, 269, 270, 271, 272, 273, 274, 275, 276, 277, 278, 279, 280, 281, 282, 283, 284, 285, 286, 287, 288, 289, 290, 291, 292, 293, 294, 295, 296, 297, 298, 299, 300, 301, 302, 303, 304, 305, 306, 307, 308, 309, 310, 311, 312, 313, 314, 315, 316, 317, 318, 319, 320, 321, 322, 323, 324, 325, 326, 327, 328, 329, 330, 331, 332, 333, 334, 335, 336, 337, 338, 339, 340, 341, 342, 343, 344, 345, 346, 347, 348, 349, 350, 351, 352, 353, 354, 355, 356, 357, 358, 359, 360, 361, 362, 363, 364, 365, 366, 367, 368, 369, 370, 371, 372, 373, 374, 375, 376, 377, 378, 379, 380, 381, 382, 383, 384, 385, 386, 387, 388, 389, 390, 391, 392, 393, 394, 395, 396, 397, 398, 399, 400, 401, 402, 403, 404, 405, 406, 407, 408, 409, 410, 411, 412, 413, 414, 415, 416, 417, 418, 419, 420, 421, 422, 423, 424, 425, 426, 427, 428, 429, 430, 431, 432, 433, 434, 435, 436, 437, 438, 439, 440, 441, 442, 443, 444, 445, 446, 447, 448, 449, 450, 451, 452, 453, 454, 455, 456, 457, 458, 459, 460, 461, 462, 463, 464, 465, 466, 467, 468, 469, 470, 471, 472, 473, 474, 475, 476, 477, 478, 479],
      "AcquisitionTime": ["162527.805000", "162529.295000", "162530.785000", "162532.275000", "162533.765000", "162535.255000", "162536.745000", "162538.235000", "162539.725000", "162541.215000", "162542.705000", "162544.195000", "162545.685000", "162547.175000", "162548.665000", "162550.155000", "162551.645000", "162553.135000", "162554.625000", "162556.115000", "162557.605000", "162559.095000", "162600.585000", "162602.075000", "162603.565000", "162605.055000", "162606.545000", "162608.035000", "162609.525000", "162611.015000", "162612.505000", "162613.995000", "162615.485000", "162616.975000", "162618.465000", "162619.955000", "162621.445000", "162622.935000", "162624.425000", "162625.915000", "162627.405000", "162628.895000", "162630.385000", "162631.875000", "162633.365000", "162634.855000", "162636.345000", "162637.835000", "162639.325000", "162640.815000", "162642.305000", "162643.795000", "162645.285000", "162646.775000", "162648.265000", "162649.755000", "162651.245000", "162652.735000", "162654.225000", "162655.715000", "162657.205000", "162658.695000", "162700.185000", "162701.675000", "162703.165000", "162704.655000", "162706.145000", "162707.635000", "162709.125000", "162710.615000", "162712.105000", "162713.595000", "162715.085000", "162716.575000", "162718.065000", "162719.555000", "162721.045000", "162722.535000", "162724.025000", "162725.515000", "162727.005000", "162728.495000", "162729.985000", "162731.475000", "162732.965000", "162734.455000", "162735.945000", "162737.435000", "162738.925000", "162740.415000", "162741.905000", "162743.395000", "162744.885000", "162746.375000", "162747.865000", "162749.355000", "162750.845000", "162752.335000", "162753.825000", "162755.315000", "162756.805000", "162758.295000", "162759.785000", "162801.275000", "162802.765000", "162804.255000", "162805.745000", "162807.235000", "162808.725000", "162810.215000", "162811.705000", "162813.195000", "162814.685000", "162816.175000", "162817.665000", "162819.155000", "162820.645000", "162822.135000", "162823.625000", "162825.115000", "162826.605000", "162828.095000", "162829.585000", "162831.075000", "162832.565000", "162834.055000", "162835.545000", "162837.035000", "162838.525000", "162840.015000", "162841.505000", "162842.995000", "162844.485000", "162845.975000", "162847.465000", "162848.955000", "162850.445000", "162851.935000", "162853.425000", "162854.915000", "162856.405000", "162857.895000", "162859.385000", "162900.875000", "162902.365000", "162903.855000", "162905.345000", "162906.835000", "162908.325000", "162909.815000", "162911.305000", "162912.795000", "162914.285000", "162915.775000", "162917.265000", "162918.755000", "162920.245000", "162921.735000", "162923.225000", "162924.715000", "162926.205000", "162927.695000", "162929.185000", "162930.675000", "162932.165000", "162933.655000", "162935.145000", "162936.635000", "162938.125000", "162939.615000", "162941.105000", "162942.595000", "162944.085000", "162945.575000", "162947.065000", "162948.555000", "162950.045000", "162951.535000", "162953.025000", "162954.515000", "162956.005000", "162957.495000", "162958.985000", "163000.475000", "163001.965000", "163003.455000", "163004.945000", "163006.435000", "163007.925000", "163009.415000", "163010.905000", "163012.395000", "163013.885000", "163015.375000", "163016.865000", "163018.355000", "163019.845000", "163021.335000", "163022.825000", "163024.315000", "163025.805000", "163027.295000", "163028.785000", "163030.275000", "163031.765000", "163033.255000", "163034.745000", "163036.235000", "163037.725000", "163039.215000", "163040.705000", "163042.195000", "163043.685000", "163045.175000", "163046.665000", "163048.155000", "163049.645000", "163051.135000", "163052.625000", "163054.115000", "163055.605000", "163057.095000", "163058.585000", "163100.075000", "163101.565000", "163103.055000", "163104.545000", "163106.035000", "163107.525000", "163109.015000", "163110.505000", "163111.995000", "163113.485000", "163114.975000", "163116.465000", "163117.955000", "163119.445000", "163120.935000", "163122.425000", "163123.915000", "163125.405000", "163126.895000", "163128.385000", "163129.875000", "163131.365000", "163132.855000", "163134.345000", "163135.835000", "163137.325000", "163138.815000", "163140.305000", "163141.795000", "163143.285000", "163144.775000", "163146.265000", "163147.755000", "163149.245000", "163150.735000", "163152.225000", "163153.715000", "163155.205000", "163156.695000", "163158.185000", "163159.675000", "163201.165000", "163202.655000", "163204.145000", "163205.635000", "163207.125000", "163208.615000", "163210.105000", "163211.595000", "163213.085000", "163214.575000", "163216.065000", "163217.555000", "163219.045000", "163220.535000", "163222.025000", "163223.515000", "163225.005000", "163226.495000", "163227.985000", "163229.475000", "163230.965000", "163232.455000", "163233.945000", "163235.435000", "163236.925000", "163238.415000", "163239.905000", "163241.395000", "163242.885000", "163244.375000", "163245.865000", "163247.355000", "163248.845000", "163250.335000", "163251.825000", "163253.315000", "163254.805000", "163256.295000", "163257.785000", "163259.275000", "163300.765000", "163302.255000", "163303.745000", "163305.235000", "163306.725000", "163308.215000", "163309.705000", "163311.195000", "163312.685000", "163314.175000", "163315.665000", "163317.155000", "163318.645000", "163320.135000", "163321.625000", "163323.115000", "163324.605000", "163326.095000", "163327.585000", "163329.075000", "163330.565000", "163332.055000", "163333.545000", "163335.035000", "163336.525000", "163338.015000", "163339.505000", "163340.995000", "163342.485000", "163343.975000", "163345.465000", "163346.955000", "163348.445000", "163349.935000", "163351.425000", "163352.915000", "163354.405000", "163355.895000", "163357.385000", "163358.875000", "163400.365000", "163401.855000", "163403.345000", "163404.835000", "163406.325000", "163407.815000", "163409.305000", "163410.795000", "163412.285000", "163413.775000", "163415.265000", "163416.755000", "163418.245000", "163419.735000", "163421.225000", "163422.715000", "163424.205000", "163425.695000", "163427.185000", "163428.675000", "163430.165000", "163431.655000", "163433.145000", "163434.635000", "163436.125000", "163437.615000", "163439.105000", "163440.595000", "163442.085000", "163443.575000", "163445.065000", "163446.555000", "163448.045000", "163449.535000", "163451.025000", "163452.515000", "163454.005000", "163455.495000", "163456.985000", "163458.475000", "163459.965000", "163501.455000", "163502.945000", "163504.435000", "163505.925000", "163507.415000", "163508.905000", "163510.395000", "163511.885000", "163513.375000", "163514.865000", "163516.355000", "163517.845000", "163519.335000", "163520.825000", "163522.315000", "163523.805000", "163525.295000", "163526.785000", "163528.275000", "163529.765000", "163531.255000", "163532.745000", "163534.235000", "163535.725000", "163537.215000", "163538.705000", "163540.195000", "163541.685000", "163543.175000", "163544.665000", "163546.155000", "163547.645000", "163549.135000", "163550.625000", "163552.115000", "163553.605000", "163555.095000", "163556.585000", "163558.075000", "163559.565000", "163601.055000", "163602.545000", "163604.035000", "163605.525000", "163607.015000", "163608.505000", "163609.995000", "163611.485000", "163612.975000", "163614.465000", "163615.955000", "163617.445000", "163618.935000", "163620.425000", "163621.915000", "163623.405000", "163624.895000", "163626.385000", "163627.875000", "163629.365000", "163630.855000", "163632.345000", "163633.835000", "163635.325000", "163636.815000", "163638.305000", "163639.795000", "163641.285000", "163642.775000", "163644.265000", "163645.755000", "163647.245000", "163648.735000", "163650.225000", "163651.715000", "163653.205000", "163654.695000", "163656.185000", "163657.675000", "163659.165000", "163700.655000", "163702.145000", "163703.635000", "163705.125000", "163706.615000", "163708.105000", "163709.595000", "163711.085000", "163712.575000", "163714.065000", "163715.555000", "163717.045000", "163718.535000", "163720.025000"],
      "ContentTime": ["162720.730000", "162720.734000", "162720.737000", "162720.740000", "162720.743000", "162720.746000", "162720.749000", "162720.752000", "162720.755000", "162720.757000", "162720.760000", "162720.763000", "162720.766000", "162720.802000", "162720.805000", "162720.808000", "162720.811000", "162720.814000", "162720.817000", "162720.820000", "162720.823000", "162720.826000", "162720.829000", "162720.832000", "162720.835000", "162720.838000", "162720.841000", "162720.848000", "162720.851000", "162720.854000", "162720.857000", "162720.861000", "162720.864000", "162720.867000", "162720.870000", "162720.873000", "162720.876000", "162720.879000", "162720.882000", "162740.702000", "162740.705000", "162740.708000", "162740.711000", "162740.714000", "162740.717000", "162740.720000", "162740.723000", "162740.726000", "162740.729000", "162740.732000", "162740.735000", "162740.738000", "162740.740000", "162740.743000", "162740.751000", "162740.754000", "162740.757000", "162740.760000", "162740.763000", "162800.702000", "162800.705000", "162800.708000", "162800.711000", "162800.714000", "162800.717000", "162800.720000", "162800.723000", "162800.727000", "162800.730000", "162800.733000", "162800.736000", "162800.739000", "162800.742000", "162800.744000", "162800.748000", "162800.751000", "162800.754000", "162800.756000", "162800.760000", "162820.703000", "162820.706000", "162820.709000", "162820.712000", "162820.715000", "162820.718000", "162820.721000", "162820.724000", "162820.727000", "162820.730000", "162820.732000", "162820.735000", "162820.738000", "162820.741000", "162820.744000", "162820.747000", "162820.750000", "162820.753000", "162820.756000", "162820.759000", "162840.702000", "162840.713000", "162840.716000", "162840.719000", "162840.722000", "162840.725000", "162840.728000", "162840.731000", "162840.734000", "162840.737000", "162840.740000", "162840.755000", "162840.758000", "162840.761000", "162840.764000", "162840.767000", "162840.770000", "162840.773000", "162840.776000", "162840.779000", "162840.782000", "162900.702000", "162900.705000", "162900.708000", "162900.711000", "162900.714000", "162900.717000", "162900.720000", "162900.723000", "162900.726000", "162900.729000", "162900.731000", "162900.734000", "162900.737000", "162900.748000", "162900.751000", "162900.754000", "162900.757000", "162900.760000", "162900.763000", "162900.766000", "162940.702000", "162940.705000", "162940.708000", "162940.711000", "162940.714000", "162940.717000", "162940.720000", "162940.723000", "162940.726000", "162940.729000", "162940.732000", "162940.735000", "162940.738000", "162940.741000", "162940.745000", "162940.748000", "162940.751000", "162940.754000", "162940.757000", "162940.760000", "162940.763000", "162940.766000", "162940.769000", "162940.772000", "162940.774000", "162940.777000", "162940.780000", "162940.783000", "162940.786000", "163000.702000", "163000.705000", "163000.708000", "163000.711000", "163000.714000", "163000.717000", "163000.720000", "163000.723000", "163000.726000", "163000.729000", "163000.731000", "163000.735000", "163000.737000", "163040.703000", "163040.706000", "163040.709000", "163040.712000", "163040.715000", "163040.718000", "163040.721000", "163040.724000", "163040.727000", "163040.730000", "163040.733000", "163040.736000", "163040.739000", "163040.742000", "163040.745000", "163040.747000", "163040.750000", "163040.753000", "163040.756000", "163040.759000", "163040.762000", "163040.765000", "163040.768000", "163040.771000", "163040.774000", "163040.777000", "163040.780000", "163120.702000", "163120.705000", "163120.708000", "163120.711000", "163120.714000", "163120.717000", "163120.720000", "163120.723000", "163120.726000", "163120.729000", "163120.732000", "163120.735000", "163120.738000", "163120.741000", "163120.743000", "163120.746000", "163120.749000", "163120.752000", "163120.755000", "163120.758000", "163120.761000", "163120.764000", "163120.767000", "163120.770000", "163120.773000", "163120.776000", "163120.779000", "163200.702000", "163200.705000", "163200.708000", "163200.711000", "163200.714000", "163200.717000", "163200.720000", "163200.723000", "163200.726000", "163200.729000", "163200.732000", "163200.735000", "163200.738000", "163200.741000", "163200.744000", "163200.748000", "163200.751000", "163200.754000", "163200.777000", "163200.780000", "163200.783000", "163200.786000", "163200.789000", "163200.792000", "163200.795000", "163200.798000", "163240.702000", "163240.705000", "163240.708000", "163240.711000", "163240.714000", "163240.717000", "163240.720000", "163240.723000", "163240.726000", "163240.729000", "163240.732000", "163240.734000", "163240.738000", "163240.740000", "163240.743000", "163240.746000", "163240.749000", "163240.752000", "163240.755000", "163240.758000", "163240.761000", "163240.764000", "163240.767000", "163240.770000", "163240.773000", "163240.776000", "163240.779000", "163320.702000", "163320.705000", "163320.708000", "163320.711000", "163320.714000", "163320.717000", "163320.720000", "163320.723000", "163320.726000", "163320.729000", "163320.732000", "163320.735000", "163320.738000", "163320.741000", "163320.744000", "163320.747000", "163320.749000", "163320.752000", "163320.755000", "163320.758000", "163320.761000", "163320.764000", "163320.767000", "163320.770000", "163320.773000", "163320.776000", "163320.779000", "163400.702000", "163400.705000", "163400.708000", "163400.711000", "163400.714000", "163400.717000", "163400.720000", "163400.723000", "163400.726000", "163400.729000", "163400.732000", "163400.735000", "163400.738000", "163400.740000", "163400.743000", "163400.746000", "163400.749000", "163400.752000", "163400.755000", "163400.758000", "163400.761000", "163400.764000", "163400.767000", "163400.770000", "163400.773000", "163400.776000", "163400.779000", "163440.702000", "163440.705000", "163440.708000", "163440.711000", "163440.714000", "163440.717000", "163440.720000", "163440.723000", "163440.726000", "163440.729000", "163440.732000", "163440.735000", "163440.738000", "163440.742000", "163440.745000", "163440.748000", "163440.751000", "163440.754000", "163440.757000", "163440.759000", "163440.762000", "163440.765000", "163440.768000", "163440.771000", "163440.774000", "163440.778000", "163440.780000", "163520.703000", "163520.706000", "163520.709000", "163520.712000", "163520.715000", "163520.718000", "163520.721000", "163520.724000", "163520.727000", "163520.730000", "163520.733000", "163520.736000", "163520.739000", "163520.742000", "163520.745000", "163520.747000", "163520.751000", "163520.754000", "163520.756000", "163520.759000", "163520.762000", "163520.765000", "163520.768000", "163520.771000", "163520.774000", "163520.777000", "163520.780000", "163600.702000", "163600.705000", "163600.708000", "163600.711000", "163600.714000", "163600.717000", "163600.720000", "163600.723000", "163600.726000", "163600.729000", "163600.732000", "163600.736000", "163600.738000", "163600.741000", "163600.744000", "163600.747000", "163600.750000", "163600.753000", "163600.756000", "163600.759000", "163600.762000", "163600.765000", "163600.768000", "163600.771000", "163600.774000", "163600.777000", "163600.780000", "163640.702000", "163640.705000", "163640.708000", "163640.711000", "163640.722000", "163640.725000", "163640.729000", "163640.732000", "163640.735000", "163640.738000", "163640.741000", "163640.744000", "163640.747000", "163640.750000", "163640.753000", "163640.755000", "163640.759000", "163640.762000", "163640.764000", "163640.767000", "163640.770000", "163640.773000", "163640.777000", "163640.780000", "163640.783000", "163640.786000", "163720.702000", "163720.705000", "163720.708000", "163720.711000", "163720.721000", "163720.723000", "163720.726000", "163720.729000", "163720.732000", "163720.735000", "163720.738000", "163720.741000", "163720.744000", "163720.747000", "163720.750000", "163720.753000", "163720.756000", "163720.759000", "163720.762000", "163720.765000", "163720.768000", "163720.771000", "163720.774000", "163720.777000", "163720.780000", "163720.783000", "163720.786000", "163723.394000", "163723.398000"],
