{
  "AcquisitionMatrixPE": 104,
  "AcquisitionNumber": 1,
  "AcquisitionTime": "16:50:40.210000",
  "BandwidthPerPixelPhaseEncode": 17.17,
  "BaseResolution": 104,
  "BodyPartExamined": "BRAIN",
  "CoilString": "HC1-7;NC1_2",
  "ConsistencyInfo": "N4_VE11C_LATEST_20160120",
  "ConversionSoftware": "dcm2niix",
  "ConversionSoftwareVersion": "v1.0.20190902",
  "DerivedVendorReportedEchoSpacing": 0.000560011,
  "DeviceSerialNumber": "167006",
  "DwellTime": 2.1e-06,
  "EchoTime": 0.037,
  "EchoTrainLength": 104,
  "EffectiveEchoSpacing": 0.000560011,
  "FlipAngle": 52,
  "ImageComments": "Unaliased_MB4_PE3_LB",
  "ImageOrientationPatientDICOM": [0.996291, 0.0541128, 0.0669005, -0.0377512, 0.973563, -0.225275],
  "ImageType": [
    "ORIGINAL",
    "PRIMARY",
    "M",
    "MB",
    "ND",
    "MOSAIC"
],
  "ImagingFrequency": 123.259,
  "InPlanePhaseEncodingDirectionDICOM": "COL",
  "InstitutionAddress": "Chemin_Queen-Mary_4565_Montreal_District_CA_H3W_1W5",
  "InstitutionName": "IUGM",
  "InstitutionalDepartmentName": "Department",
  "MRAcquisitionType": "2D",
  "MagneticFieldStrength": 3,
  "Manufacturer": "Siemens",
  "ManufacturersModelName": "Prisma_fit",
  "Modality": "MR",
  "MultibandAccelerationFactor": 4,
  "PartialFourier": 1,
  "PatientPosition": "HFS",
  "PercentPhaseFOV": 100,
  "PhaseEncodingDirection": "j",
  "PhaseEncodingSteps": 104,
  "PhaseResolution": 1,
  "PixelBandwidth": 2290,
  "ProcedureStepDescription": "games_shinobi",
  "ProtocolName": "func_task-shinobi_run-3",
  "PulseSequenceDetails": "%CustomerSeq%_cmrr_mbep2d_bold",
  "ReceiveCoilActiveElements": "HC1-7;NC1,2",
  "ReceiveCoilName": "HeadNeck_64",
  "ReconMatrixPE": 104,
  "RepetitionTime": 1.49,
  "SAR": 0.0408295,
  "ScanOptions": "FS",
  "ScanningSequence": "EP",
  "SequenceName": "epfid2d1_104",
  "SequenceVariant": "SK_SS",
  "SeriesDescription": "func_task-shinobi_run-3",
  "SeriesNumber": 13,
  "ShimSetting": [638, -7225, -8814, 672, 77, -66, 131, 0],
  "SliceThickness": 2,
  "SliceTiming": [0, 0.7825, 0.0975, 0.8825, 0.195, 0.98, 0.2925, 1.0775, 0.3925, 1.175, 0.49, 1.2725, 0.5875, 1.37, 0.685, 0, 0.7825, 0.0975, 0.8825, 0.195, 0.98, 0.2925, 1.0775, 0.3925, 1.175, 0.49, 1.2725, 0.5875, 1.37, 0.685, 0, 0.7825, 0.0975, 0.8825, 0.195, 0.98, 0.2925, 1.0775, 0.3925, 1.175, 0.49, 1.2725, 0.5875, 1.37, 0.685, 0, 0.7825, 0.0975, 0.8825, 0.195, 0.98, 0.2925, 1.0775, 0.3925, 1.175, 0.49, 1.2725, 0.5875, 1.37, 0.685],
  "SoftwareVersions": "syngo_MR_E11",
  "SpacingBetweenSlices": 2,
  "StationName": "MRC35049",
  "TaskName": "shinobi",
  "TotalReadoutTime": 0.0576811,
  "TxRefAmp": 248.317,
  "WipMemBlock": "9a95e916-2480-437d-8bc5-31a0d4302287||Sequence: R016 ve11c/master r/e634e98; Dec 19 2017 11:00:25 by eja",
  "dcmmeta_affine": [
    [-1.9925823211669922, -0.0755024403333664, 0.1546444147825241, 106.73948669433594],
    [-0.10822562128305435, 1.9471269845962524, -0.4438287317752838, -62.617855072021484],
    [0.13380105793476105, 0.4505508840084076, 1.9439910650253296, -48.535133361816406],
    [0.0, 0.0, 0.0, 1.0]
],
  "dcmmeta_reorient_transform": [
    [0.0, -1.0, 0.0, 103.0],
    [1.0, 0.0, 0.0, 0.0],
    [0.0, 0.0, 1.0, 0.0],
    [0.0, 0.0, 0.0, 1.0]
],
  "dcmmeta_shape": [104, 104, 60, 445],
  "dcmmeta_slice_dim": 2,
  "dcmmeta_version": 0.6,
  "global": {
    "const": {
      "AcquisitionMatrix": [104, 0, 0, 104],
      "AngioFlag": "N",
      "BitsAllocated": 16,
      "BitsStored": 16,
      "BodyPartExamined": "BRAIN",
      "Columns": 832,
      "EchoNumbers": 1,
      "EchoTime": 37.0,
      "EchoTrainLength": 104,
      "FlipAngle": 52.0,
      "HighBit": 15,
      "ImageOrientationPatient": [0.99629118349584, 0.05411281198706, 0.06690053263842, -0.0377512215449, 0.97356346363211, -0.2252754481796],
      "ImagePositionPatient": [-796.77982429186, -886.08454553146, 113.16854732976],
      "ImageType": [
        "ORIGINAL",
        "PRIMARY",
        "M",
        "MB",
        "ND",
        "MOSAIC"
],
      "ImagedNucleus": "1H",
      "ImagingFrequency": 123.259238,
      "InPlanePhaseEncodingDirection": "COL",
      "MRAcquisitionType": "2D",
      "MagneticFieldStrength": 3.0,
      "Manufacturer": "SIEMENS",
      "ManufacturerModelName": "Prisma_fit",
      "Modality": "MR",
      "NumberOfAverages": 1.0,
      "NumberOfPhaseEncodingSteps": 104,
      "PercentPhaseFieldOfView": 100.0,
      "PercentSampling": 100.0,
      "PerformedProcedureStepStartTime": "162155.436000",
      "PhotometricInterpretation": "MONOCHROME2",
      "PixelBandwidth": 2290.0,
      "PixelRepresentation": 0,
      "PixelSpacing": [2.0, 2.0],
      "ProtocolName": "func_task-shinobi_run-3",
      "RepetitionTime": 1490.0,
      "Rows": 832,
      "SAR": 0.04082952293303,
      "SamplesPerPixel": 1,
      "ScanOptions": "FS",
      "ScanningSequence": "EP",
      "SequenceName": "epfid2d1_104",
      "SequenceVariant": [
        "SK",
        "SS"
],
      "SeriesDescription": "func_task-shinobi_run-3",
      "SeriesNumber": 13,
      "SeriesTime": "165207.476000",
      "SliceLocation": -25.02679844268,
      "SliceThickness": 2.0,
      "SmallestImagePixelValue": 0,
      "SoftwareVersions": "syngo MR E11",
      "SpacingBetweenSlices": 2.0000000580216,
      "SpecificCharacterSet": "ISO_IR 100",
      "StudyID": "1",
      "StudyTime": "162155.346000",
      "TransmitCoilName": "Body",
      "VariableFlipAngleFlag": "N",
      "WindowCenterWidthExplanation": "Algo1",
      "dBdt": 0.0},
    "slices": {}
  },
  "time": {
    "samples": {
      "AcquisitionNumber": [1, 2, 3, 4, 5, 6, 7, 8, 9, 10, 11, 12, 13, 14, 15, 16, 17, 18, 19, 20, 21, 22, 23, 24, 25, 26, 27, 28, 29, 30, 31, 32, 33, 34, 35, 36, 37, 38, 39, 40, 41, 42, 43, 44, 45, 46, 47, 48, 49, 50, 51, 52, 53, 54, 55, 56, 57, 58, 59, 60, 61, 62, 63, 64, 65, 66, 67, 68, 69, 70, 71, 72, 73, 74, 75, 76, 77, 78, 79, 80, 81, 82, 83, 84, 85, 86, 87, 88, 89, 90, 91, 92, 93, 94, 95, 96, 97, 98, 99, 100, 101, 102, 103, 104, 105, 106, 107, 108, 109, 110, 111, 112, 113, 114, 115, 116, 117, 118, 119, 120, 121, 122, 123, 124, 125, 126, 127, 128, 129, 130, 131, 132, 133, 134, 135, 136, 137, 138, 139, 140, 141, 142, 143, 144, 145, 146, 147, 148, 149, 150, 151, 152, 153, 154, 155, 156, 157, 158, 159, 160, 161, 162, 163, 164, 165, 166, 167, 168, 169, 170, 171, 172, 173, 174, 175, 176, 177, 178, 179, 180, 181, 182, 183, 184, 185, 186, 187, 188, 189, 190, 191, 192, 193, 194, 195, 196, 197, 198, 199, 200, 201, 202, 203, 204, 205, 206, 207, 208, 209, 210, 211, 212, 213, 214, 215, 216, 217, 218, 219, 220, 221, 222, 223, 224, 225, 226, 227, 228, 229, 230, 231, 232, 233, 234, 235, 236, 237, 238, 239, 240, 241, 242, 243, 244, 245, 246, 247, 248, 249, 250, 251, 252, 253, 254, 255, 256, 257, 258, 259, 260, 261, 262, 263, 264, 265, 266, 267, 268, 269, 270, 271, 272, 273, 274, 275, 276, 277, 278, 279, 280, 281, 282, 283, 284, 285, 286, 287, 288, 289, 290, 291, 292, 293, 294, 295, 296, 297, 298, 299, 300, 301, 302, 303, 304, 305, 306, 307, 308, 309, 310, 311, 312, 313, 314, 315, 316, 317, 318, 319, 320, 321, 322, 323, 324, 325, 326, 327, 328, 329, 330, 331, 332, 333, 334, 335, 336, 337, 338, 339, 340, 341, 342, 343, 344, 345, 346, 347, 348, 349, 350, 351, 352, 353, 354, 355, 356, 357, 358, 359, 360, 361, 362, 363, 364, 365, 366, 367, 368, 369, 370, 371, 372, 373, 374, 375, 376, 377, 378, 379, 380, 381, 382, 383, 384, 385, 386, 387, 388, 389, 390, 391, 392, 393, 394, 395, 396, 397, 398, 399, 400, 401, 402, 403, 404, 405, 406, 407, 408, 409, 410, 411, 412, 413, 414, 415, 416, 417, 418, 419, 420, 421, 422, 423, 424, 425, 426, 427, 428, 429, 430, 431, 432, 433, 434, 435, 436, 437, 438, 439, 440, 441, 442, 443, 444, 445],
      "AcquisitionTime": ["165040.210000", "165041.700000", "165043.190000", "165044.680000", "165046.170000", "165047.660000", "165049.150000", "165050.640000", "165052.130000", "165053.620000", "165055.110000", "165056.600000", "165058.090000", "165059.580000", "165101.070000", "165102.560000", "165104.050000", "165105.540000", "165107.030000", "165108.520000", "165110.010000", "165111.500000", "165112.990000", "165114.480000", "165115.970000", "165117.460000", "165118.950000", "165120.440000", "165121.930000", "165123.420000", "165124.910000", "165126.400000", "165127.890000", "165129.380000", "165130.870000", "165132.360000", "165133.850000", "165135.340000", "165136.830000", "165138.320000", "165139.810000", "165141.300000", "165142.790000", "165144.280000", "165145.770000", "165147.260000", "165148.750000", "165150.240000", "165151.730000", "165153.220000", "165154.710000", "165156.200000", "165157.690000", "165159.180000", "165200.670000", "165202.160000", "165203.650000", "165205.140000", "165206.630000", "165208.120000", "165209.610000", "165211.100000", "165212.590000", "165214.080000", "165215.570000", "165217.060000", "165218.550000", "165220.040000", "165221.530000", "165223.020000", "165224.510000", "165226.000000", "165227.490000", "165228.980000", "165230.470000", "165231.960000", "165233.450000", "165234.940000", "165236.430000", "165237.920000", "165239.410000", "165240.900000", "165242.390000", "165243.880000", "165245.370000", "165246.860000", "165248.350000", "165249.840000", "165251.330000", "165252.820000", "165254.310000", "165255.800000", "165257.290000", "165258.780000", "165300.270000", "165301.760000", "165303.250000", "165304.740000", "165306.230000", "165307.720000", "165309.210000", "165310.700000", "165312.190000", "165313.680000", "165315.170000", "165316.660000", "165318.150000", "165319.640000", "165321.130000", "165322.620000", "165324.110000", "165325.600000", "165327.090000", "165328.580000", "165330.070000", "165331.560000", "165333.050000", "165334.540000", "165336.030000", "165337.520000", "165339.010000", "165340.500000", "165341.990000", "165343.480000", "165344.970000", "165346.460000", "165347.950000", "165349.440000", "165350.930000", "165352.420000", "165353.910000", "165355.400000", "165356.890000", "165358.380000", "165359.870000", "165401.360000", "165402.850000", "165404.340000", "165405.830000", "165407.320000", "165408.810000", "165410.300000", "165411.790000", "165413.280000", "165414.770000", "165416.260000", "165417.750000", "165419.240000", "165420.730000", "165422.220000", "165423.710000", "165425.200000", "165426.690000", "165428.180000", "165429.670000", "165431.160000", "165432.650000", "165434.140000", "165435.630000", "165437.120000", "165438.610000", "165440.100000", "165441.590000", "165443.080000", "165444.570000", "165446.060000", "165447.550000", "165449.040000", "165450.530000", "165452.020000", "165453.510000", "165455.000000", "165456.490000", "165457.980000", "165459.470000", "165500.960000", "165502.450000", "165503.940000", "165505.430000", "165506.920000", "165508.410000", "165509.900000", "165511.390000", "165512.880000", "165514.370000", "165515.860000", "165517.350000", "165518.840000", "165520.330000", "165521.820000", "165523.310000", "165524.800000", "165526.290000", "165527.780000", "165529.270000", "165530.760000", "165532.250000", "165533.740000", "165535.230000", "165536.720000", "165538.210000", "165539.700000", "165541.190000", "165542.680000", "165544.170000", "165545.660000", "165547.150000", "165548.640000", "165550.130000", "165551.620000", "165553.110000", "165554.600000", "165556.090000", "165557.580000", "165559.070000", "165600.560000", "165602.050000", "165603.540000", "165605.030000", "165606.520000", "165608.010000", "165609.500000", "165610.990000", "165612.480000", "165613.970000", "165615.460000", "165616.950000", "165618.440000", "165619.930000", "165621.420000", "165622.910000", "165624.400000", "165625.890000", "165627.380000", "165628.870000", "165630.360000", "165631.850000", "165633.340000", "165634.830000", "165636.320000", "165637.810000", "165639.300000", "165640.790000", "165642.280000", "165643.770000", "165645.260000", "165646.750000", "165648.240000", "165649.730000", "165651.220000", "165652.710000", "165654.200000", "165655.690000", "165657.180000", "165658.670000", "165700.160000", "165701.650000", "165703.140000", "165704.630000", "165706.120000", "165707.610000", "165709.100000", "165710.590000", "165712.080000", "165713.570000", "165715.060000", "165716.550000", "165718.040000", "165719.530000", "165721.020000", "165722.510000", "165724.000000", "165725.490000", "165726.980000", "165728.470000", "165729.960000", "165731.450000", "165732.940000", "165734.430000", "165735.920000", "165737.410000", "165738.900000", "165740.390000", "165741.880000", "165743.370000", "165744.860000", "165746.350000", "165747.840000", "165749.330000", "165750.820000", "165752.310000", "165753.800000", "165755.290000", "165756.780000", "165758.270000", "165759.760000", "165801.250000", "165802.740000", "165804.230000", "165805.720000", "165807.210000", "165808.700000", "165810.190000", "165811.680000", "165813.170000", "165814.660000", "165816.150000", "165817.640000", "165819.130000", "165820.620000", "165822.110000", "165823.600000", "165825.090000", "165826.580000", "165828.070000", "165829.560000", "165831.050000", "165832.540000", "165834.030000", "165835.520000", "165837.010000", "165838.500000", "165839.990000", "165841.480000", "165842.970000", "165844.460000", "165845.950000", "165847.440000", "165848.930000", "165850.420000", "165851.910000", "165853.400000", "165854.890000", "165856.380000", "165857.870000", "165859.360000", "165900.850000", "165902.340000", "165903.830000", "165905.320000", "165906.810000", "165908.300000", "165909.790000", "165911.280000", "165912.770000", "165914.260000", "165915.750000", "165917.240000", "165918.730000", "165920.220000", "165921.710000", "165923.200000", "165924.690000", "165926.180000", "165927.670000", "165929.160000", "165930.650000", "165932.140000", "165933.630000", "165935.120000", "165936.610000", "165938.100000", "165939.590000", "165941.080000", "165942.570000", "165944.060000", "165945.550000", "165947.040000", "165948.530000", "165950.020000", "165951.510000", "165953.000000", "165954.490000", "165955.980000", "165957.470000", "165958.960000", "170000.450000", "170001.940000", "170003.430000", "170004.920000", "170006.410000", "170007.900000", "170009.390000", "170010.880000", "170012.370000", "170013.860000", "170015.350000", "170016.840000", "170018.330000", "170019.820000", "170021.310000", "170022.800000", "170024.290000", "170025.780000", "170027.270000", "170028.760000", "170030.250000", "170031.740000", "170033.230000", "170034.720000", "170036.210000", "170037.700000", "170039.190000", "170040.680000", "170042.170000", "170043.660000", "170045.150000", "170046.640000", "170048.130000", "170049.620000", "170051.110000", "170052.600000", "170054.090000", "170055.580000", "170057.070000", "170058.560000", "170100.050000", "170101.540000", "170103.030000", "170104.520000", "170106.010000", "170107.500000", "170108.990000", "170110.480000", "170111.970000", "170113.460000", "170114.950000", "170116.440000", "170117.930000", "170119.420000", "170120.910000", "170122.400000", "170123.890000", "170125.380000", "170126.870000", "170128.360000", "170129.850000", "170131.340000", "170132.830000", "170134.320000", "170135.810000", "170137.300000", "170138.790000", "170140.280000", "170141.770000"],
      "ContentTime": ["165207.480000", "165207.483000", "165207.486000", "165207.489000", "165207.492000", "165207.495000", "165207.498000", "165207.501000", "165207.504000", "165207.507000", "165207.510000", "165207.513000", "165207.515000", "165207.518000", "165207.521000", "165207.524000", "165207.527000", "165207.530000", "165207.533000", "165207.536000", "165207.539000", "165207.542000", "165207.544000", "165207.547000", "165207.550000", "165207.553000", "165207.556000", "165207.559000", "165207.562000", "165207.577000", "165207.580000", "165207.583000", "165207.586000", "165207.589000", "165207.592000", "165227.448000", "165227.451000", "165227.454000", "165227.458000", "165227.461000", "165227.464000", "165227.467000", "165227.470000", "165227.473000", "165227.476000", "165227.479000", "165227.482000", "165227.484000", "165227.487000", "165227.490000", "165227.493000", "165227.496000", "165227.499000", "165227.502000", "165227.505000", "165247.447000", "165247.450000", "165247.453000", "165247.456000", "165247.459000", "165247.461000", "165247.464000", "165247.468000", "165247.470000", "165247.474000", "165247.477000", "165247.480000", "165247.483000", "165247.486000", "165247.489000", "165247.492000", "165247.495000", "165247.498000", "165247.501000", "165247.504000", "165307.448000", "165307.451000", "165307.454000", "165307.457000", "165307.460000", "165307.463000", "165307.466000", "165307.469000", "165307.471000", "165307.474000", "165307.477000", "165307.480000", "165307.483000", "165307.486000", "165307.489000", "165307.492000", "165307.495000", "165307.498000", "165307.501000", "165307.504000", "165307.507000", "165347.448000", "165347.451000", "165347.454000", "165347.457000", "165347.460000", "165347.463000", "165347.466000", "165347.469000", "165347.472000", "165347.475000", "165347.478000", "165347.481000", "165347.484000", "165347.486000", "165347.490000", "165347.492000", "165347.495000", "165347.498000", "165347.501000", "165347.504000", "165347.507000", "165347.510000", "165347.513000", "165347.516000", "165347.519000", "165347.522000", "165347.525000", "165347.528000", "165347.531000", "165427.448000", "165427.451000", "165427.454000", "165427.457000", "165427.460000", "165427.463000", "165427.466000", "165427.469000", "165427.472000", "165427.475000", "165427.478000", "165427.481000", "165427.484000", "165427.487000", "165427.490000", "165427.493000", "165427.496000", "165427.499000", "165427.502000", "165427.505000", "165427.508000", "165427.511000", "165427.514000", "165427.517000", "165427.519000", "165427.522000", "165507.447000", "165507.450000", "165507.453000", "165507.456000", "165507.459000", "165507.462000", "165507.465000", "165507.468000", "165507.471000", "165507.474000", "165507.477000", "165507.480000", "165507.483000", "165507.489000", "165507.492000", "165507.495000", "165507.497000", "165507.501000", "165507.503000", "165507.506000", "165507.509000", "165507.512000", "165507.515000", "165507.518000", "165507.521000", "165507.524000", "165507.527000", "165547.448000", "165547.451000", "165547.454000", "165547.457000", "165547.460000", "165547.463000", "165547.466000", "165547.469000", "165547.472000", "165547.475000", "165547.478000", "165547.481000", "165547.484000", "165547.487000", "165547.490000", "165547.493000", "165547.496000", "165547.499000", "165547.502000", "165547.505000", "165547.508000", "165547.511000", "165547.514000", "165547.517000", "165547.520000", "165547.522000", "165547.525000", "165627.448000", "165627.451000", "165627.454000", "165627.457000", "165627.460000", "165627.463000", "165627.466000", "165627.469000", "165627.472000", "165627.475000", "165627.477000", "165627.481000", "165627.483000", "165627.486000", "165627.489000", "165627.492000", "165627.495000", "165627.498000", "165627.501000", "165627.504000", "165627.507000", "165627.510000", "165627.513000", "165627.516000", "165627.528000", "165627.531000", "165627.534000", "165707.448000", "165707.451000", "165707.454000", "165707.457000", "165707.460000", "165707.463000", "165707.466000", "165707.469000", "165707.472000", "165707.475000", "165707.478000", "165707.481000", "165707.484000", "165707.487000", "165707.490000", "165707.493000", "165707.495000", "165707.498000", "165707.501000", "165707.504000", "165707.507000", "165707.513000", "165707.516000", "165707.519000", "165707.522000", "165707.524000", "165707.528000", "165747.448000", "165747.451000", "165747.454000", "165747.457000", "165747.460000", "165747.463000", "165747.466000", "165747.469000", "165747.481000", "165747.484000", "165747.487000", "165747.490000", "165747.493000", "165747.496000", "165747.499000", "165747.501000", "165747.504000", "165747.507000", "165747.510000", "165747.513000", "165747.516000", "165747.519000", "165747.522000", "165747.525000", "165747.528000", "165747.531000", "165747.534000", "165827.448000", "165827.451000", "165827.454000", "165827.457000", "165827.461000", "165827.464000", "165827.467000", "165827.470000", "165827.473000", "165827.476000", "165827.479000", "165827.482000", "165827.485000", "165827.488000", "165827.491000", "165827.493000", "165827.496000", "165827.499000", "165827.502000", "165827.505000", "165827.508000", "165827.511000", "165827.514000", "165827.517000", "165827.520000", "165827.522000", "165907.448000", "165907.451000", "165907.454000", "165907.457000", "165907.460000", "165907.463000", "165907.466000", "165907.469000", "165907.472000", "165907.475000", "165907.477000", "165907.480000", "165907.483000", "165907.486000", "165907.489000", "165907.492000", "165907.495000", "165907.504000", "165907.507000", "165907.510000", "165907.513000", "165907.516000", "165907.519000", "165907.522000", "165907.525000", "165907.528000", "165907.531000", "165947.447000", "165947.450000", "165947.453000", "165947.456000", "165947.459000", "165947.462000", "165947.465000", "165947.468000", "165947.471000", "165947.474000", "165947.476000", "165947.479000", "165947.482000", "165947.485000", "165947.488000", "165947.491000", "165947.494000", "165947.497000", "165947.500000", "165947.503000", "165947.506000", "165947.508000", "165947.511000", "165947.514000", "165947.517000", "165947.520000", "165947.523000", "170027.448000", "170027.451000", "170027.454000", "170027.457000", "170027.460000", "170027.463000", "170027.466000", "170027.469000", "170027.472000", "170027.475000", "170027.477000", "170027.480000", "170027.483000", "170027.486000", "170027.489000", "170027.492000", "170027.495000", "170027.498000", "170027.501000", "170027.504000", "170027.507000", "170027.510000", "170027.513000", "170027.515000", "170027.518000", "170027.521000", "170027.524000", "170107.448000", "170107.451000", "170107.454000", "170107.458000", "170107.461000", "170107.464000", "170107.467000", "170107.470000", "170107.473000", "170107.476000", "170107.479000", "170107.481000", "170107.484000", "170107.487000", "170107.490000", "170107.493000", "170107.496000", "170107.499000", "170107.502000", "170107.505000", "170107.508000", "170107.511000", "170107.514000", "170107.517000", "170107.519000", "170107.522000", "170107.525000", "170144.490000", "170144.493000", "170144.496000", "170144.499000", "170144.502000", "170144.505000", "170144.508000", "170144.511000", "170144.514000", "170144.517000", "170144.519000", "170144.522000", "170144.525000", "170144.528000", "170144.531000", "170144.534000", "170144.537000", "170144.540000", "170144.543000", "170144.546000", "170144.548000", "170144.551000", "170144.554000", "170144.557000", "170144.560000"],
